0.74798
0.74798
0.74799
0.74799
0.74799
0.748
0.748
0.748
0.74801
0.74801
0.74801
0.74801
0.74801
0.74801
0.74801
0.74801
0.74801
0.74801
0.74801
0.74801
0.74801
0.74801
0.748
0.748
0.748
0.748
0.74799
0.74799
0.74798
0.74798
0.74797
0.74797
0.74796
0.74796
0.74795
0.74795
0.74794
0.74793
0.74793
0.74792
0.74791
0.74791
0.7479
0.74789
0.74789
0.74788
0.74787
0.74787
0.74786
0.74785
0.74785
0.74784
0.74783
0.74783
0.74782
0.74782
0.74781
0.74781
0.7478
0.7478
0.74779
0.74779
0.74779
0.74778
0.74778
0.74778
0.74777
0.74777
0.74777
0.74777
0.74777
0.74777
0.74777
0.74777
0.74777
0.74777
0.74777
0.74777
0.74777
0.74778
0.74778
0.74778
0.74779
0.74779
0.74779
0.7478
0.7478
0.74781
0.74781
0.74782
0.74782
0.74783
0.74784
0.74784
0.74785
0.74785
0.74786
0.74787
0.74787
0.74788
0.74789
0.7479
0.7479
0.74791
0.74792
0.74792
0.74793
0.74794
0.74794
0.74795
0.74795
0.74796
0.74797
0.74797
0.74798
0.74798
0.74799
0.74799
0.748
0.748
0.748
0.74801
0.74801
0.74801
0.74801
0.74802
0.74802
0.74802
0.74802
0.74802
0.74802
0.74802
0.74802
0.74802
0.74801
0.74801
0.74801
0.74801
0.74801
0.748
0.748
0.74799
0.74799
0.74799
0.74798
0.74798
0.74797
0.74796
0.74796
0.74795
0.74795
0.74794
0.74793
0.74793
0.74792
0.74791
0.74791
0.7479
0.74789
0.74788
0.74788
0.74787
0.74786
0.74786
0.74785
0.74784
0.74784
0.74783
0.74782
0.74782
0.74781
0.74781
0.7478
0.7478
0.74779
0.74779
0.74778
0.74778
0.74778
0.74777
0.74777
0.74777
0.74777
0.74777
0.74776
0.74776
0.74776
0.74776
0.74776
0.74776
0.74777
0.74777
0.74777
0.74777
0.74777
0.74778
0.74778
0.74778
0.74779
0.74779
0.7478
0.7478
0.74781
0.74781
0.74782
0.74782
0.74783
0.74784
0.74784
0.74785
0.74785
0.74786
0.74787
0.74788
0.74788
0.74789
0.7479
0.7479
0.74791
0.74792
0.74793
0.74793
0.74794
0.74795
0.74795
0.74796
0.74796
0.74797
0.74798
0.74798
0.74799
0.74799
0.748
0.748
0.748
0.74801
0.74801
0.74801
0.74802
0.74802
0.74802
0.74802
0.74802
0.74802
0.74802
0.74802
0.74802
0.74802
0.74802
0.74802
0.74802
0.74801
0.74801
0.74801
0.748
0.748
0.748
0.74799
0.74799
0.74798
0.74798
0.74797
0.74797
0.74796
0.74795
0.74795
0.74794
0.74793
0.74793
0.74792
0.74791
0.7479
0.7479
0.74789
0.74788
0.74787
0.74787
0.74786
0.74785
0.74785
0.74784
0.74783
0.74783
0.74782
0.74781
0.74781
0.7478
0.7478
0.74779
0.74779
0.74778
0.74778
0.74777
0.74777
0.74777
0.74777
0.74776
0.74776
0.74776
0.74776
0.74776
0.74776
0.74776
0.74776
0.74776
0.74776
0.74776
0.74776
0.74777
0.74777
0.74777
0.74778
0.74778
0.74778
0.74779
0.74779
0.7478
0.7478
0.74781
0.74782
0.74782
0.74783
0.74783
0.74784
0.74785
0.74786
0.74786
0.74787
0.74788
0.74788
0.74789
0.7479
0.74791
0.74791
0.74792
0.74793
0.74794
0.74794
0.74795
0.74796
0.74796
0.74797
0.74798
0.74798
0.74799
0.74799
0.748
0.748
0.74801
0.74801
0.74801
0.74802
0.74802
0.74802
0.74803
0.74803
0.74803
0.74803
0.74803
0.74803
0.74803
0.74803
0.74803
0.74803
0.74802
0.74802
0.74802
0.74802
0.74801
0.74801
0.748
0.748
0.748
0.74799
0.74798
0.74798
0.74797
0.74797
0.74796
0.74795
0.74795
0.74794
0.74793
0.74792
0.74792
0.74791
0.7479
0.74789
0.74789
0.74788
0.74787
0.74786
0.74786
0.74785
0.74784
0.74783
0.74783
0.74782
0.74781
0.74781
0.7478
0.7478
0.74779
0.74779
0.74778
0.74778
0.74777
0.74777
0.74776
0.74776
0.74776
0.74776
0.74775
0.74775
0.74775
0.74775
0.74775
0.74775
0.74775
0.74775
0.74775
0.74776
0.74776
0.74776
0.74776
0.74777
0.74777
0.74777
0.74778
0.74778
0.74779
0.7478
0.7478
0.74781
0.74781
0.74782
0.74783
0.74783
0.74784
0.74785
0.74786
0.74786
0.74787
0.74788
0.74789
0.74789
0.7479
0.74791
0.74792
0.74793
0.74793
0.74794
0.74795
0.74796
0.74796
0.74797
0.74798
0.74798
0.74799
0.74799
0.748
0.74801
0.74801
0.74801
0.74802
0.74802
0.74803
0.74803
0.74803
0.74803
0.74804
0.74804
0.74804
0.74804
0.74804
0.74804
0.74804
0.74804
0.74803
0.74803
0.74803
0.74803
0.74802
0.74802
0.74801
0.74801
0.748
0.748
0.74799
0.74799
0.74798
0.74798
0.74797
0.74796
0.74795
0.74795
0.74794
0.74793
0.74792
0.74792
0.74791
0.7479
0.74789
0.74788
0.74788
0.74787
0.74786
0.74785
0.74784
0.74784
0.74783
0.74782
0.74781
0.74781
0.7478
0.74779
0.74779
0.74778
0.74778
0.74777
0.74777
0.74776
0.74776
0.74776
0.74775
0.74775
0.74775
0.74774
0.74774
0.74774
0.74774
0.74774
0.74774
0.74774
0.74774
0.74775
0.74775
0.74775
0.74775
0.74776
0.74776
0.74776
0.74777
0.74777
0.74778
0.74779
0.74779
0.7478
0.7478
0.74781
0.74782
0.74783
0.74783
0.74784
0.74785
0.74786
0.74786
0.74787
0.74788
0.74789
0.7479
0.74791
0.74791
0.74792
0.74793
0.74794
0.74795
0.74796
0.74796
0.74797
0.74798
0.74798
0.74799
0.748
0.748
0.74801
0.74801
0.74802
0.74802
0.74803
0.74803
0.74804
0.74804
0.74804
0.74804
0.74805
0.74805
0.74805
0.74805
0.74805
0.74805
0.74805
0.74804
0.74804
0.74804
0.74804
0.74803
0.74803
0.74803
0.74802
0.74802
0.74801
0.748
0.748
0.74799
0.74799
0.74798
0.74797
0.74796
0.74796
0.74795
0.74794
0.74793
0.74792
0.74791
0.74791
0.7479
0.74789
0.74788
0.74787
0.74786
0.74785
0.74785
0.74784
0.74783
0.74782
0.74781
0.74781
0.7478
0.74779
0.74778
0.74778
0.74777
0.74777
0.74776
0.74776
0.74775
0.74775
0.74774
0.74774
0.74774
0.74774
0.74773
0.74773
0.74773
0.74773
0.74773
0.74773
0.74773
0.74773
0.74774
0.74774
0.74774
0.74774
0.74775
0.74775
0.74776
0.74776
0.74777
0.74777
0.74778
0.74779
0.74779
0.7478
0.74781
0.74782
0.74782
0.74783
0.74784
0.74785
0.74786
0.74787
0.74788
0.74788
0.74789
0.7479
0.74791
0.74792
0.74793
0.74794
0.74795
0.74796
0.74796
0.74797
0.74798
0.74799
0.74799
0.748
0.74801
0.74802
0.74802
0.74803
0.74803
0.74804
0.74804
0.74805
0.74805
0.74805
0.74806
0.74806
0.74806
0.74806
0.74806
0.74806
0.74806
0.74806
0.74806
0.74806
0.74805
0.74805
0.74805
0.74804
0.74804
0.74803
0.74803
0.74802
0.74802
0.74801
0.74801
0.748
0.74799
0.74798
0.74797
0.74797
0.74796
0.74795
0.74794
0.74793
0.74792
0.74791
0.7479
0.74789
0.74788
0.74787
0.74787
0.74786
0.74785
0.74784
0.74783
0.74782
0.74781
0.7478
0.74779
0.74779
0.74778
0.74777
0.74777
0.74776
0.74775
0.74775
0.74774
0.74774
0.74773
0.74773
0.74772
0.74772
0.74772
0.74772
0.74772
0.74772
0.74772
0.74772
0.74772
0.74772
0.74772
0.74772
0.74772
0.74773
0.74773
0.74774
0.74774
0.74775
0.74775
0.74776
0.74776
0.74777
0.74778
0.74779
0.74779
0.7478
0.74781
0.74782
0.74783
0.74784
0.74785
0.74786
0.74787
0.74788
0.74789
0.7479
0.74791
0.74792
0.74793
0.74794
0.74795
0.74796
0.74797
0.74798
0.74798
0.74799
0.748
0.74801
0.74802
0.74802
0.74803
0.74804
0.74804
0.74805
0.74805
0.74806
0.74806
0.74807
0.74807
0.74807
0.74808
0.74808
0.74808
0.74808
0.74808
0.74808
0.74808
0.74807
0.74807
0.74807
0.74807
0.74806
0.74806
0.74805
0.74805
0.74804
0.74804
0.74803
0.74802
0.74801
0.74801
0.748
0.74799
0.74798
0.74797
0.74796
0.74795
0.74794
0.74793
0.74792
0.74791
0.7479
0.74789
0.74788
0.74787
0.74786
0.74785
0.74784
0.74783
0.74782
0.74781
0.7478
0.74779
0.74778
0.74777
0.74776
0.74775
0.74775
0.74774
0.74773
0.74773
0.74772
0.74772
0.74771
0.74771
0.7477
0.7477
0.7477
0.7477
0.7477
0.74769
0.74769
0.7477
0.7477
0.7477
0.7477
0.7477
0.74771
0.74771
0.74772
0.74772
0.74773
0.74773
0.74774
0.74775
0.74775
0.74776
0.74777
0.74778
0.74779
0.7478
0.74781
0.74782
0.74783
0.74784
0.74785
0.74786
0.74787
0.74788
0.74789
0.7479
0.74792
0.74793
0.74794
0.74795
0.74796
0.74797
0.74798
0.74799
0.748
0.74801
0.74802
0.74803
0.74804
0.74805
0.74805
0.74806
0.74807
0.74807
0.74808
0.74808
0.74809
0.74809
0.7481
0.7481
0.7481
0.7481
0.7481
0.7481
0.7481
0.7481
0.7481
0.7481
0.74809
0.74809
0.74809
0.74808
0.74808
0.74807
0.74806
0.74806
0.74805
0.74804
0.74803
0.74802
0.74802
0.74801
0.748
0.74799
0.74797
0.74796
0.74795
0.74794
0.74793
0.74792
0.74791
0.74789
0.74788
0.74787
0.74786
0.74785
0.74783
0.74782
0.74781
0.7478
0.74779
0.74778
0.74777
0.74776
0.74775
0.74774
0.74773
0.74772
0.74771
0.74771
0.7477
0.74769
0.74769
0.74768
0.74768
0.74767
0.74767
0.74767
0.74767
0.74767
0.74766
0.74766
0.74767
0.74767
0.74767
0.74767
0.74768
0.74768
0.74769
0.74769
0.7477
0.7477
0.74771
0.74772
0.74773
0.74774
0.74775
0.74776
0.74777
0.74778
0.74779
0.7478
0.74781
0.74783
0.74784
0.74785
0.74786
0.74788
0.74789
0.7479
0.74792
0.74793
0.74794
0.74795
0.74797
0.74798
0.74799
0.748
0.74802
0.74803
0.74804
0.74805
0.74806
0.74807
0.74808
0.74809
0.74809
0.7481
0.74811
0.74812
0.74812
0.74813
0.74813
0.74813
0.74814
0.74814
0.74814
0.74814
0.74814
0.74814
0.74814
0.74814
0.74813
0.74813
0.74812
0.74812
0.74811
0.74811
0.7481
0.74809
0.74808
0.74807
0.74806
0.74805
0.74804
0.74803
0.74802
0.74801
0.74799
0.74798
0.74797
0.74795
0.74794
0.74793
0.74791
0.7479
0.74788
0.74787
0.74785
0.74784
0.74783
0.74781
0.7478
0.74778
0.74777
0.74776
0.74774
0.74773
0.74772
0.74771
0.7477
0.74769
0.74768
0.74767
0.74766
0.74765
0.74765
0.74764
0.74763
0.74763
0.74763
0.74762
0.74762
0.74762
0.74762
0.74762
0.74762
0.74762
0.74762
0.74763
0.74763
0.74763
0.74764
0.74765
0.74765
0.74766
0.74767
0.74768
0.74769
0.7477
0.74771
0.74773
0.74774
0.74775
0.74777
0.74778
0.74779
0.74781
0.74782
0.74784
0.74785
0.74787
0.74789
0.7479
0.74792
0.74794
0.74795
0.74797
0.74798
0.748
0.74801
0.74803
0.74804
0.74806
0.74807
0.74808
0.7481
0.74811
0.74812
0.74813
0.74814
0.74815
0.74816
0.74817
0.74818
0.74818
0.74819
0.74819
0.7482
0.7482
0.7482
0.7482
0.7482
0.7482
0.7482
0.7482
0.74819
0.74819
0.74818
0.74818
0.74817
0.74816
0.74815
0.74814
0.74813
0.74812
0.74811
0.74809
0.74808
0.74807
0.74805
0.74804
0.74802
0.748
0.74799
0.74797
0.74795
0.74793
0.74792
0.7479
0.74788
0.74786
0.74784
0.74782
0.7478
0.74779
0.74777
0.74775
0.74773
0.74772
0.7477
0.74768
0.74767
0.74765
0.74764
0.74763
0.74761
0.7476
0.74759
0.74758
0.74757
0.74756
0.74755
0.74755
0.74754
0.74754
0.74753
0.74753
0.74753
0.74753
0.74753
0.74753
0.74754
0.74754
0.74755
0.74755
0.74756
0.74757
0.74758
0.74759
0.7476
0.74761
0.74763
0.74764
0.74766
0.74767
0.74769
0.74771
0.74773
0.74775
0.74777
0.74779
0.74781
0.74783
0.74785
0.74787
0.74789
0.74791
0.74794
0.74796
0.74798
0.748
0.74803
0.74805
0.74807
0.74809
0.74811
0.74813
0.74815
0.74817
0.74818
0.7482
0.74822
0.74823
0.74825
0.74826
0.74827
0.74828
0.74829
0.7483
0.74831
0.74832
0.74832
0.74833
0.74833
0.74833
0.74833
0.74833
0.74833
0.74832
0.74832
0.74831
0.7483
0.74829
0.74828
0.74827
0.74826
0.74824
0.74823
0.74821
0.74819
0.74817
0.74815
0.74813
0.74811
0.74808
0.74806
0.74803
0.74801
0.74798
0.74796
0.74793
0.7479
0.74787
0.74785
0.74782
0.74779
0.74776
0.74774
0.74771
0.74768
0.74765
0.74763
0.7476
0.74758
0.74755
0.74753
0.74751
0.74748
0.74746
0.74744
0.74743
0.74741
0.74739
0.74738
0.74737
0.74736
0.74735
0.74734
0.74733
0.74733
0.74732
0.74732
0.74732
0.74733
0.74733
0.74734
0.74735
0.74736
0.74737
0.74738
0.7474
0.74741
0.74743
0.74745
0.74748
0.7475
0.74753
0.74755
0.74758
0.74761
0.74764
0.74767
0.74771
0.74774
0.74778
0.74781
0.74785
0.74789
0.74793
0.74797
0.748
0.74804
0.74808
0.74812
0.74816
0.7482
0.74824
0.74827
0.74831
0.74835
0.74838
0.74842
0.74845
0.74848
0.74851
0.74854
0.74857
0.74859
0.74861
0.74863
0.74865
0.74867
0.74868
0.7487
0.7487
0.74871
0.74872
0.74872
0.74872
0.74871
0.7487
0.74869
0.74868
0.74866
0.74865
0.74862
0.7486
0.74857
0.74854
0.74851
0.74847
0.74843
0.74839
0.74834
0.7483
0.74825
0.7482
0.74814
0.74809
0.74803
0.74797
0.74791
0.74784
0.74778
0.74771
0.74765
0.74758
0.74751
0.74744
0.74737
0.74731
0.74724
0.74717
0.74711
0.74704
0.74698
0.74691
0.74685
0.7468
0.74674
0.74669
0.74664
0.74659
0.74655
0.74651
0.74648
0.74645
0.74643
0.74641
0.7464
0.74639
0.74639
0.74639
0.74641
0.74643
0.74645
0.74649
0.74653
0.74658
0.74664
0.74671
0.74679
0.74687
0.74697
0.74708
0.74719
0.74732
0.74746
0.7476
0.74776
0.74793
0.74811
0.74831
0.74851
0.74873
0.74895
0.74919
0.74944
0.74971
0.74998
0.75027
0.75057
0.75089
0.75121
0.75155
0.7519
0.75226
0.75264
0.75303
0.75343
0.75384
0.75426
0.7547
0.75515
0.75561
0.75608
0.75656
0.75706
0.75757
0.75808
0.75861
0.75915
0.7597
0.76026
0.76083
0.76141
0.762
0.7626
0.7632
0.76382
0.76444
0.76508
0.76572
0.76637
0.76702
0.76769
0.76836
0.76903
0.76971
0.7704
0.77109
0.77179
0.7725
0.7732
0.77392
0.77463
0.77535
0.77608
0.7768
0.77753
0.77826
0.77899
0.77973
0.78046
0.7812
0.78194
0.78268
0.78342
0.78415
0.78489
0.78563
0.78637
0.7871
0.78784
0.78857
0.7893
0.79003
0.79076
0.79149
0.79221
0.79293
0.79365
0.79436
0.79508
0.79579
0.79649
0.79719
0.79789
0.79859
0.79928
0.79997
0.80065
0.80133
0.80201
0.80268
0.80335
0.80401
0.80467
0.80533
0.80598
0.80663
0.80728
0.80792
0.80856
0.80919
0.80982
0.81045
0.81107
0.81169
0.8123
0.81292
0.81353
0.81413
0.81474
0.81534
0.81594
0.81653
0.81712
0.81771
0.8183
0.81889
0.81947
0.82005
0.82063
0.82121
0.82179
0.82236
0.82293
0.82351
0.82408
0.82465
0.82522
0.82578
0.82635
0.82692
0.82749
0.82805
0.82862
0.82919
0.82975
0.83032
0.83088
0.83145
0.83202
0.83258
0.83315
0.83372
0.83429
0.83486
0.83542
0.83599
0.83657
0.83714
0.83771
0.83828
0.83885
0.83943
0.84
0.84058
0.84116
0.84173
0.84231
0.84289
0.84347
0.84405
0.84463
0.84521
0.84579
0.84637
0.84696
0.84754
0.84812
0.8487
0.84929
0.84987
0.85046
0.85104
0.85162
0.85221
0.85279
0.85337
0.85396
0.85454
0.85512
0.8557
0.85628
0.85686
0.85744
0.85802
0.8586
0.85918
0.85975
0.86033
0.8609
0.86147
0.86204
0.86261
0.86318
0.86375
0.86431
0.86487
0.86544
0.866
0.86655
0.86711
0.86767
0.86822
0.86877
0.86932
0.86987
0.87041
0.87095
0.8715
0.87203
0.87257
0.87311
0.87364
0.87417
0.8747
0.87523
0.87575
0.87628
0.8768
0.87732
0.87783
0.87835
0.87886
0.87937
0.87988
0.88039
0.8809
0.8814
0.88191
0.88241
0.88291
0.88341
0.8839
0.8844
0.88489
0.88538
0.88587
0.88636
0.88685
0.88734
0.88782
0.88831
0.88879
0.88927
0.88976
0.89024
0.89072
0.89119
0.89167
0.89215
0.89262
0.8931
0.89357
0.89405
0.89452
0.89499
0.89546
0.89594
0.89641
0.89688
0.89735
0.89781
0.89828
0.89875
0.89922
0.89968
0.90015
0.90061
0.90108
0.90154
0.90201
0.90247
0.90293
0.90339
0.90385
0.90431
0.90477
0.90523
0.90569
0.90615
0.9066
0.90706
0.90752
0.90797
0.90842
0.90887
0.90933
0.90978
0.91022
0.91067
0.91112
0.91157
0.91201
0.91245
0.91289
0.91333
0.91377
0.91421
0.91465
0.91508
0.91552
0.91595
0.91638
0.91681
0.91723
0.91766
0.91808
0.9185
0.91892
0.91934
0.91976
0.92017
0.92058
0.92099
0.9214
0.92181
0.92221
0.92261
0.92301
0.92341
0.92381
0.9242
0.9246
0.92499
0.92537
0.92576
0.92614
0.92653
0.92691
0.92728
0.92766
0.92804
0.92841
0.92878
0.92915
0.92951
0.92988
0.93024
0.9306
0.93096
0.93131
0.93167
0.93202
0.93237
0.93272
0.93307
0.93342
0.93376
0.93411
0.93445
0.93479
0.93513
0.93546
0.9358
0.93613
0.93646
0.9368
0.93712
0.93745
0.93778
0.9381
0.93843
0.93875
0.93907
0.93939
0.93971
0.94003
0.94035
0.94066
0.94098
0.94129
0.9416
0.94191
0.94222
0.94253
0.94284
0.94314
0.94345
0.94375
0.94405
0.94435
0.94465
0.94495
0.94525
0.94555
0.94584
0.94613
0.94643
0.94672
0.94701
0.94729
0.94758
0.94787
0.94815
0.94843
0.94871
0.94899
0.94927
0.94955
0.94982
0.95009
0.95036
0.95063
0.9509
0.95117
0.95143
0.95169
0.95195
0.95221
0.95246
0.95272
0.95297
0.95322
0.95347
0.95371
0.95396
0.9542
0.95444
0.95467
0.95491
0.95514
0.95537
0.9556
0.95582
0.95605
0.95627
0.95649
0.9567
0.95692
0.95713
0.95734
0.95755
0.95775
0.95795
0.95815
0.95835
0.95854
0.95874
0.95893
0.95912
0.9593
0.95949
0.95967
0.95985
0.96003
0.9602
0.96038
0.96055
0.96072
0.96089
0.96105
0.96122
0.96138
0.96154
0.9617
0.96186
0.96202
0.96217
0.96233
0.96248
0.96263
0.96278
0.96293
0.96308
0.96322
0.96337
0.96351
0.96366
0.9638
0.96394
0.96408
0.96422
0.96436
0.9645
0.96464
0.96478
0.96492
0.96506
0.9652
0.96534
0.96547
0.96561
0.96575
0.96589
0.96603
0.96616
0.9663
0.96644
0.96658
0.96672
0.96686
0.967
0.96714
0.96728
0.96742
0.96756
0.9677
0.96784
0.96799
0.96813
0.96827
0.96842
0.96856
0.9687
0.96885
0.96899
0.96914
0.96929
0.96943
0.96958
0.96973
0.96988
0.97002
0.97017
0.97032
0.97047
0.97062
0.97077
0.97092
0.97107
0.97121
0.97136
0.97151
0.97166
0.97181
0.97196
0.9721
0.97225
0.9724
0.97254
0.97269
0.97284
0.97298
0.97312
0.97327
0.97341
0.97355
0.97369
0.97383
0.97396
0.9741
0.97424
0.97437
0.9745
0.97463
0.97476
0.97489
0.97502
0.97514
0.97526
0.97538
0.9755
0.97562
0.97573
0.97585
0.97596
0.97607
0.97617
0.97628
0.97638
0.97648
0.97658
0.97667
0.97677
0.97686
0.97695
0.97703
0.97712
0.9772
0.97728
0.97735
0.97742
0.9775
0.97756
0.97763
0.97769
0.97775
0.97781
0.97787
0.97792
0.97797
0.97802
0.97806
0.9781
0.97814
0.97818
0.97822
0.97825
0.97828
0.97831
0.97833
0.97835
0.97837
0.97839
0.97841
0.97842
0.97843
0.97844
0.97845
0.97845
0.97845
0.97845
0.97845
0.97845
0.97844
0.97843
0.97842
0.97841
0.97839
0.97838
0.97836
0.97834
0.97832
0.97829
0.97827
0.97824
0.97821
0.97818
0.97814
0.97811
0.97807
0.97804
0.978
0.97796
0.97791
0.97787
0.97782
0.97778
0.97773
0.97768
0.97763
0.97757
0.97752
0.97746
0.9774
0.97734
0.97728
0.97722
0.97716
0.97709
0.97703
0.97696
0.97689
0.97682
0.97675
0.97667
0.9766
0.97652
0.97644
0.97636
0.97628
0.97619
0.97611
0.97602
0.97593
0.97584
0.97575
0.97566
0.97556
0.97547
0.97537
0.97527
0.97516
0.97506
0.97495
0.97485
0.97474
0.97463
0.97451
0.9744
0.97428
0.97416
0.97404
0.97392
0.97379
0.97366
0.97353
0.9734
0.97327
0.97313
0.973
0.97286
0.97271
0.97257
0.97242
0.97227
0.97212
0.97197
0.97182
0.97166
0.9715
0.97134
0.97117
0.97101
0.97084
0.97067
0.9705
0.97032
0.97014
0.96996
0.96978
0.9696
0.96941
0.96922
0.96903
0.96884
0.96865
0.96845
0.96825
0.96805
0.96785
0.96764
0.96744
0.96723
0.96702
0.9668
0.96659
0.96637
0.96615
0.96593
0.96571
0.96548
0.96526
0.96503
0.9648
0.96457
0.96433
0.9641
0.96386
0.96362
0.96338
0.96314
0.9629
0.96265
0.9624
0.96216
0.96191
0.96165
0.9614
0.96115
0.96089
0.96063
0.96037
0.96011
0.95985
0.95959
0.95932
0.95906
0.95879
0.95852
0.95825
0.95798
0.95771
0.95743
0.95715
0.95688
0.9566
0.95632
0.95604
0.95576
0.95547
0.95519
0.9549
0.95461
0.95432
0.95403
0.95374
0.95344
0.95315
0.95285
0.95256
0.95226
0.95195
0.95165
0.95135
0.95104
0.95074
0.95043
0.95012
0.94981
0.94949
0.94918
0.94886
0.94855
0.94823
0.94791
0.94758
0.94726
0.94693
0.9466
0.94627
0.94594
0.94561
0.94528
0.94494
0.9446
0.94426
0.94392
0.94357
0.94323
0.94288
0.94253
0.94218
0.94183
0.94147
0.94112
0.94076
0.9404
0.94003
0.93967
0.9393
0.93894
0.93857
0.93819
0.93782
0.93745
0.93707
0.93669
0.93631
0.93592
0.93554
0.93515
0.93477
0.93438
0.93398
0.93359
0.93319
0.9328
0.9324
0.932
0.9316
0.93119
0.93079
0.93038
0.92997
0.92956
0.92915
0.92874
0.92832
0.92791
0.92749
0.92707
0.92665
0.92623
0.92581
0.92538
0.92496
0.92453
0.9241
0.92367
0.92324
0.92281
0.92238
0.92194
0.92151
0.92107
0.92063
0.92019
0.91975
0.91931
0.91887
0.91843
0.91798
0.91754
0.91709
0.91664
0.9162
0.91575
0.91529
0.91484
0.91439
0.91394
0.91348
0.91302
0.91257
0.91211
0.91165
0.91119
0.91073
0.91026
0.9098
0.90933
0.90887
0.9084
0.90793
0.90746
0.90698
0.90651
0.90603
0.90556
0.90508
0.9046
0.90411
0.90363
0.90315
0.90266
0.90217
0.90168
0.90119
0.90069
0.90019
0.8997
0.8992
0.89869
0.89819
0.89768
0.89717
0.89666
0.89615
0.89563
0.89511
0.89459
0.89407
0.89354
0.89301
0.89248
0.89195
0.89141
0.89087
0.89033
0.88979
0.88924
0.88869
0.88814
0.88758
0.88702
0.88646
0.8859
0.88533
0.88476
0.88419
0.88362
0.88304
0.88246
0.88188
0.88129
0.88071
0.88012
0.87952
0.87893
0.87833
0.87773
0.87713
0.87652
0.87591
0.8753
0.87469
0.87408
0.87346
0.87284
0.87222
0.8716
0.87097
0.87034
0.86972
0.86909
0.86845
0.86782
0.86719
0.86655
0.86591
0.86527
0.86463
0.86399
0.86335
0.86271
0.86206
0.86142
0.86077
0.86013
0.85948
0.85884
0.85819
0.85754
0.85689
0.85625
0.8556
0.85495
0.8543
0.85366
0.85301
0.85236
0.85171
0.85107
0.85042
0.84978
0.84913
0.84849
0.84784
0.8472
0.84656
0.84591
0.84527
0.84463
0.84399
0.84335
0.84271
0.84208
0.84144
0.8408
0.84017
0.83953
0.8389
0.83827
0.83763
0.837
0.83637
0.83574
0.83511
0.83448
0.83385
0.83322
0.83259
0.83196
0.83133
0.8307
0.83007
0.82944
0.82881
0.82818
0.82755
0.82692
0.82629
0.82565
0.82502
0.82439
0.82375
0.82312
0.82248
0.82184
0.8212
0.82056
0.81992
0.81927
0.81862
0.81798
0.81733
0.81667
0.81602
0.81536
0.8147
0.81404
0.81338
0.81271
0.81205
0.81137
0.8107
0.81002
0.80934
0.80866
0.80798
0.80729
0.8066
0.80591
0.80521
0.80451
0.80381
0.8031
0.8024
0.80168
0.80097
0.80026
0.79954
0.79882
0.79809
0.79737
0.79664
0.79591
0.79517
0.79444
0.7937
0.79296
0.79222
0.79148
0.79074
0.78999
0.78925
0.7885
0.78775
0.78701
0.78626
0.78551
0.78476
0.78402
0.78327
0.78253
0.78178
0.78104
0.7803
0.77956
0.77882
0.77809
0.77736
0.77663
0.7759
0.77518
0.77446
0.77375
0.77304
0.77233
0.77163
0.77094
0.77025
0.76957
0.76889
0.76822
0.76755
0.7669
0.76625
0.7656
0.76497
0.76434
0.76372
0.76311
0.76251
0.76192
0.76134
0.76077
0.7602
0.75965
0.75911
0.75857
0.75805
0.75754
0.75704
0.75655
0.75607
0.7556
0.75515
0.7547
0.75427
0.75385
0.75344
0.75304
0.75266
0.75229
0.75193
0.75158
0.75124
0.75092
0.75061
0.75031
0.75002
0.74974
0.74948
0.74923
0.74899
0.74876
0.74854
0.74834
0.74814
0.74796
0.74779
0.74763
0.74748
0.74734
0.74721
0.74709
0.74698
0.74688
0.7468
0.74672
0.74664
0.74658
0.74653
0.74648
0.74645
0.74642
0.74639
0.74638
0.74637
0.74637
0.74637
0.74638
0.7464
0.74642
0.74645
0.74648
0.74652
0.74656
0.7466
0.74665
0.7467
0.74676
0.74681
0.74687
0.74694
0.747
0.74707
0.74713
0.7472
0.74727
0.74734
0.74741
0.74748
0.74755
0.74762
0.74768
0.74775
0.74782
0.74788
0.74795
0.74801
0.74807
0.74813
0.74819
0.74824
0.7483
0.74835
0.74839
0.74844
0.74848
0.74852
0.74856
0.74859
0.74862
0.74865
0.74867
0.7487
0.74872
0.74873
0.74874
0.74875
0.74876
0.74876
0.74876
0.74876
0.74876
0.74875
0.74874
0.74873
0.74871
0.74869
0.74867
0.74865
0.74862
0.7486
0.74857
0.74854
0.7485
0.74847
0.74843
0.7484
0.74836
0.74832
0.74828
0.74824
0.7482
0.74816
0.74812
0.74807
0.74803
0.74799
0.74795
0.7479
0.74786
0.74782
0.74778
0.74774
0.7477
0.74767
0.74763
0.74759
0.74756
0.74753
0.7475
0.74747
0.74744
0.74741
0.74739
0.74736
0.74734
0.74732
0.74731
0.74729
0.74728
0.74727
0.74726
0.74725
0.74725
0.74724
0.74724
0.74725
0.74725
0.74725
0.74726
0.74727
0.74728
0.74729
0.74731
0.74733
0.74734
0.74736
0.74738
0.74741
0.74743
0.74746
0.74748
0.74751
0.74754
0.74757
0.7476
0.74763
0.74766
0.74769
0.74773
0.74776
0.74779
0.74782
0.74786
0.74789
0.74792
0.74796
0.74799
0.74802
0.74805
0.74808
0.74811
0.74814
0.74817
0.7482
0.74822
0.74825
0.74827
0.74829
0.74831
0.74833
0.74835
0.74837
0.74838
0.7484
0.74841
0.74842
0.74843
0.74844
0.74844
0.74844
0.74845
0.74845
0.74844
0.74844
0.74844
0.74843
0.74842
0.74841
0.7484
0.74839
0.74837
0.74836
0.74834
0.74832
0.7483
0.74828
0.74826
0.74824
0.74821
0.74819
0.74816
0.74814
0.74811
0.74808
0.74805
0.74802
0.74799
0.74796
0.74794
0.74791
0.74788
0.74785
0.74782
0.74779
0.74776
0.74773
0.74771
0.74768
0.74765
0.74763
0.7476
0.74758
0.74756
0.74753
0.74751
0.74749
0.74748
0.74746
0.74745
0.74743
0.74742
0.74741
0.7474
0.74739
0.74738
0.74738
0.74738
0.74737
0.74737
0.74737
0.74738
0.74738
0.74739
0.7474
0.7474
0.74741
0.74743
0.74744
0.74745
0.74747
0.74749
0.74751
0.74753
0.74755
0.74757
0.74759
0.74762
0.74764
0.74767
0.74769
0.74772
0.74775
0.74777
0.7478
0.74783
0.74786
0.74789
0.74791
0.74794
0.74797
0.748
0.74803
0.74805
0.74808
0.74811
0.74813
0.74816
0.74818
0.74821
0.74823
0.74825
0.74827
0.74829
0.74831
0.74832
0.74834
0.74835
0.74837
0.74838
0.74839
0.74839
0.7484
0.74841
0.74841
0.74841
0.74841
0.74841
0.74841
0.74841
0.7484
0.74839
0.74838
0.74837
0.74836
0.74835
0.74833
0.74832
0.7483
0.74828
0.74826
0.74824
0.74822
0.7482
0.74817
0.74815
0.74812
0.7481
0.74807
0.74804
0.74801
0.74799
0.74796
0.74793
0.7479
0.74787
0.74784
0.74781
0.74778
0.74775
0.74772
0.7477
0.74767
0.74764
0.74761
0.74759
0.74756
0.74754
0.74752
0.7475
0.74748
0.74746
0.74744
0.74742
0.74741
0.74739
0.74738
0.74737
0.74736
0.74735
0.74735
0.74734
0.74734
0.74734
0.74734
0.74734
0.74734
0.74735
0.74736
0.74736
0.74737
0.74739
0.7474
0.74742
0.74743
0.74745
0.74747
0.74749
0.74751
0.74753
0.74756
0.74758
0.74761
0.74764
0.74767
0.7477
0.74773
0.74776
0.74779
0.74782
0.74785
0.74788
0.74791
0.74795
0.74798
0.74801
0.74804
0.74807
0.74811
0.74814
0.74817
0.7482
0.74822
0.74825
0.74828
0.7483
0.74833
0.74835
0.74837
0.74839
0.74841
0.74843
0.74845
0.74846
0.74848
0.74849
0.7485
0.7485
0.74851
0.74851
0.74852
0.74852
0.74852
0.74851
0.74851
0.7485
0.74849
0.74848
0.74847
0.74845
0.74844
0.74842
0.7484
0.74838
0.74835
0.74833
0.7483
0.74828
0.74825
0.74822
0.74819
0.74816
0.74812
0.74809
0.74805
0.74802
0.74798
0.74795
0.74791
0.74787
0.74783
0.7478
0.74776
0.74772
0.74769
0.74765
0.74761
0.74758
0.74754
0.74751
0.74748
0.74744
0.74741
0.74738
0.74736
0.74733
0.7473
0.74728
0.74726
0.74724
0.74722
0.7472
0.74719
0.74718
0.74717
0.74716
0.74715
0.74715
0.74715
0.74715
0.74715
0.74715
0.74716
0.74717
0.74718
0.7472
0.74721
0.74723
0.74725
0.74728
0.7473
0.74733
0.74736
0.74739
0.74742
0.74745
0.74749
0.74753
0.74757
0.74761
0.74765
0.74769
0.74773
0.74778
0.74782
0.74787
0.74791
0.74796
0.74801
0.74805
0.7481
0.74815
0.74819
0.74824
0.74828
0.74833
0.74837
0.74841
0.74845
0.74849
0.74853
0.74856
0.7486
0.74863
0.74866
0.74869
0.74872
0.74874
0.74876
0.74878
0.7488
0.74882
0.74883
0.74884
0.74884
0.74885
0.74885
0.74884
0.74884
0.74883
0.74882
0.7488
0.74879
0.74877
0.74874
0.74872
0.74869
0.74866
0.74862
0.74859
0.74855
0.7485
0.74846
0.74841
0.74837
0.74831
0.74826
0.74821
0.74815
0.74809
0.74804
0.74798
0.74792
0.74785
0.74779
0.74773
0.74767
0.7476
0.74754
0.74748
0.74742
0.74736
0.7473
0.74724
0.74718
0.74712
0.74707
0.74701
0.74696
0.74692
0.74687
0.74683
0.74678
0.74675
0.74671
0.74668
0.74665
0.74663
0.74661
0.74659
0.74657
0.74657
0.74656
0.74656
0.74656
0.74657
0.74658
0.74659
0.74661
0.74664
0.74667
0.7467
0.74674
0.74678
0.74682
0.74687
0.74693
0.74698
0.74704
0.74711
0.74718
0.74725
0.74732
0.7474
0.74748
0.74757
0.74765
0.74774
0.74783
0.74792
0.74801
0.74811
0.7482
0.7483
0.7484
0.74849
0.74859
0.74868
0.74878
0.74887
0.74896
0.74905
0.74914
0.74923
0.74931
0.74939
0.74947
0.74954
0.74961
0.74968
0.74974
0.74979
0.74984
0.74989
0.74992
0.74996
0.74998
0.75
0.75002
0.75003
0.75003
0.75002
0.75
0.74998
0.74995
0.74992
0.74987
0.74982
0.74976
0.74969
0.74962
0.74953
0.74944
0.74934
0.74924
0.74912
0.749
0.74888
0.74874
0.7486
0.74846
0.7483
0.74815
0.74798
0.74782
0.74764
0.74747
0.74729
0.74711
0.74692
0.74673
0.74655
0.74636
0.74617
0.74598
0.74579
0.74561
0.74543
0.74525
0.74507
0.7449
0.74474
0.74458
0.74443
0.74429
0.74415
0.74403
0.74392
0.74382
0.74373
0.74365
0.74359
0.74355
0.74352
0.74351
0.74351
0.74354
0.74358
0.74365
0.74374
0.74385
0.74398
0.74414
0.74432
0.74453
0.74477
0.74504
0.74533
0.74565
0.74601
0.74639
0.74681
0.74725
0.74773
0.74825
0.7488
0.74939
0.75001
0.75066
0.75136
0.75209
0.75286
0.75366
0.75451
0.75539
0.75632
0.75728
0.75828
0.75932
0.76041
0.76153
0.76269
0.76389
0.76514
0.76642
0.76774
0.76911
0.77051
0.77196
0.77344
0.77496
0.77652
0.77812
0.77976
0.78144
0.78315
0.7849
0.78669
0.78851
0.79037
0.79226
0.79419
0.79615
0.79814
0.80016
0.80222
0.8043
0.80642
0.80856
0.81073
0.81293
0.81515
0.8174
0.81967
0.82197
0.82428
0.82662
0.82898
0.83136
0.83376
0.83617
0.8386
0.84105
0.84351
0.84598
0.84847
0.85097
0.85347
0.85599
0.85852
0.86105
0.86359
0.86614
0.86869
0.87124
0.8738
0.87636
0.87892
0.88148
0.88404
0.8866
0.88916
0.89172
0.89427
0.89682
0.89937
0.90191
0.90444
0.90697
0.90949
0.91201
0.91451
0.91701
0.9195
0.92199
0.92446
0.92693
0.92938
0.93183
0.93426
0.93669
0.9391
0.94151
0.94391
0.94629
0.94867
0.95103
0.95338
0.95573
0.95806
0.96039
0.9627
0.96501
0.96731
0.96959
0.97187
0.97414
0.97641
0.97866
0.98091
0.98315
0.98538
0.98761
0.98983
0.99205
0.99426
0.99646
0.99866
1.0009
1.0031
1.0052
1.0074
1.0096
1.0118
1.014
1.0162
1.0184
1.0205
1.0227
1.0249
1.0271
1.0293
1.0315
1.0337
1.0359
1.0381
1.0403
1.0425
1.0447
1.0469
1.0492
1.0514
1.0536
1.0559
1.0581
1.0604
1.0626
1.0649
1.0671
1.0694
1.0717
1.074
1.0763
1.0786
1.0809
1.0832
1.0856
1.0879
1.0902
1.0926
1.0949
1.0973
1.0997
1.102
1.1044
1.1068
1.1092
1.1116
1.114
1.1164
1.1188
1.1212
1.1236
1.1261
1.1285
1.1309
1.1333
1.1358
1.1382
1.1406
1.1431
1.1455
1.1479
1.1504
1.1528
1.1553
1.1577
1.1601
1.1626
1.165
1.1674
1.1699
1.1723
1.1747
1.1772
1.1796
1.182
1.1844
1.1868
1.1892
1.1916
1.194
1.1964
1.1988
1.2011
1.2035
1.2059
1.2082
1.2106
1.2129
1.2153
1.2176
1.22
1.2223
1.2246
1.2269
1.2292
1.2315
1.2338
1.2361
1.2384
1.2407
1.243
1.2453
1.2475
1.2498
1.252
1.2543
1.2566
1.2588
1.2611
1.2633
1.2655
1.2678
1.27
1.2722
1.2745
1.2767
1.2789
1.2812
1.2834
1.2856
1.2878
1.2901
1.2923
1.2945
1.2968
1.299
1.3012
1.3035
1.3057
1.3079
1.3102
1.3124
1.3147
1.3169
1.3192
1.3215
1.3237
1.326
1.3283
1.3306
1.3329
1.3351
1.3374
1.3397
1.342
1.3444
1.3467
1.349
1.3513
1.3537
1.356
1.3583
1.3607
1.363
1.3654
1.3678
1.3701
1.3725
1.3749
1.3773
1.3797
1.382
1.3844
1.3868
1.3892
1.3916
1.3941
1.3965
1.3989
1.4013
1.4037
1.4061
1.4086
1.411
1.4134
1.4158
1.4182
1.4207
1.4231
1.4255
1.4279
1.4304
1.4328
1.4352
1.4376
1.44
1.4424
1.4448
1.4472
1.4496
1.452
1.4544
1.4568
1.4592
1.4616
1.464
1.4663
1.4687
1.4711
1.4734
1.4758
1.4781
1.4805
1.4828
1.4851
1.4875
1.4898
1.4921
1.4944
1.4967
1.499
1.5013
1.5036
1.5059
1.5082
1.5104
1.5127
1.515
1.5172
1.5195
1.5218
1.524
1.5263
1.5285
1.5308
1.533
1.5352
1.5375
1.5397
1.5419
1.5442
1.5464
1.5486
1.5508
1.5531
1.5553
1.5575
1.5598
1.562
1.5642
1.5665
1.5687
1.5709
1.5732
1.5754
1.5777
1.5799
1.5822
1.5844
1.5867
1.589
1.5912
1.5935
1.5958
1.5981
1.6004
1.6027
1.605
1.6073
1.6096
1.6119
1.6142
1.6165
1.6189
1.6212
1.6236
1.6259
1.6283
1.6306
1.633
1.6354
1.6377
1.6401
1.6425
1.6449
1.6473
1.6497
1.6521
1.6545
1.6569
1.6594
1.6618
1.6642
1.6666
1.669
1.6715
1.6739
1.6763
1.6788
1.6812
1.6836
1.6861
1.6885
1.6909
1.6934
1.6958
1.6982
1.7007
1.7031
1.7055
1.7079
1.7104
1.7128
1.7152
1.7176
1.72
1.7224
1.7248
1.7272
1.7296
1.732
1.7343
1.7367
1.7391
1.7414
1.7438
1.7461
1.7484
1.7508
1.7531
1.7554
1.7577
1.76
1.7623
1.7646
1.7669
1.7692
1.7715
1.7737
1.776
1.7783
1.7805
1.7828
1.785
1.7872
1.7895
1.7917
1.7939
1.7961
1.7984
1.8006
1.8028
1.805
1.8072
1.8094
1.8116
1.8138
1.816
1.8182
1.8204
1.8226
1.8248
1.827
1.8292
1.8314
1.8336
1.8359
1.8381
1.8403
1.8425
1.8447
1.847
1.8492
1.8515
1.8537
1.856
1.8582
1.8605
1.8628
1.865
1.8673
1.8696
1.8719
1.8742
1.8766
1.8789
1.8812
1.8836
1.8859
1.8883
1.8906
1.893
1.8954
1.8978
1.9002
1.9026
1.905
1.9074
1.9098
1.9122
1.9147
1.9171
1.9196
1.922
1.9245
1.9269
1.9294
1.9319
1.9344
1.9368
1.9393
1.9418
1.9443
1.9468
1.9492
1.9517
1.9542
1.9567
1.9592
1.9617
1.9642
1.9666
1.9691
1.9716
1.974
1.9765
1.979
1.9814
1.9839
1.9863
1.9887
1.9912
1.9936
1.996
1.9984
2.0008
2.0032
2.0055
2.0079
2.0102
2.0126
2.0149
2.0173
2.0196
2.0219
2.0242
2.0264
2.0287
2.031
2.0332
2.0355
2.0377
2.0399
2.0421
2.0443
2.0465
2.0487
2.0509
2.053
2.0552
2.0573
2.0595
2.0616
2.0637
2.0658
2.068
2.0701
2.0722
2.0743
2.0764
2.0785
2.0806
2.0827
2.0848
2.0869
2.089
2.0911
2.0932
2.0953
2.0974
2.0996
2.1017
2.1038
2.106
2.1081
2.1103
2.1125
2.1146
2.1168
2.119
2.1213
2.1235
2.1257
2.128
2.1303
2.1326
2.1349
2.1372
2.1395
2.1419
2.1442
2.1466
2.149
2.1515
2.1539
2.1564
2.1588
2.1613
2.1638
2.1664
2.1689
2.1715
2.1741
2.1767
2.1793
2.1819
2.1845
2.1872
2.1899
2.1925
2.1952
2.1979
2.2006
2.2033
2.2061
2.2088
2.2115
2.2143
2.217
2.2198
2.2225
2.2252
2.228
2.2307
2.2334
2.2361
2.2388
2.2415
2.2442
2.2469
2.2495
2.2522
2.2548
2.2573
2.2599
2.2624
2.2649
2.2674
2.2699
2.2723
2.2746
2.277
2.2792
2.2815
2.2837
2.2859
2.288
2.29
2.292
2.294
2.2959
2.2977
2.2995
2.3012
2.3029
2.3045
2.306
2.3075
2.3089
2.3102
2.3115
2.3126
2.3137
2.3148
2.3157
2.3166
2.3174
2.3182
2.3188
2.3194
2.3199
2.3203
2.3206
2.3209
2.321
2.3211
2.3211
2.321
2.3209
2.3206
2.3203
2.3199
2.3194
2.3188
2.3182
2.3175
2.3167
2.3158
2.3148
2.3138
2.3127
2.3115
2.3103
2.3089
2.3075
2.3061
2.3045
2.3029
2.3013
2.2996
2.2978
2.2959
2.294
2.2921
2.2901
2.288
2.2859
2.2837
2.2815
2.2793
2.277
2.2746
2.2722
2.2698
2.2674
2.2649
2.2624
2.2598
2.2573
2.2547
2.2521
2.2494
2.2468
2.2441
2.2414
2.2387
2.236
2.2333
2.2305
2.2278
2.225
2.2223
2.2195
2.2168
2.214
2.2113
2.2085
2.2058
2.2031
2.2003
2.1976
2.1949
2.1922
2.1895
2.1868
2.1842
2.1815
2.1789
2.1763
2.1737
2.1711
2.1685
2.166
2.1635
2.161
2.1585
2.156
2.1535
2.1511
2.1487
2.1463
2.1439
2.1415
2.1392
2.1368
2.1345
2.1322
2.1299
2.1277
2.1254
2.1232
2.1209
2.1187
2.1165
2.1144
2.1122
2.11
2.1079
2.1057
2.1036
2.1015
2.0994
2.0972
2.0951
2.093
2.0909
2.0888
2.0868
2.0847
2.0826
2.0805
2.0784
2.0763
2.0742
2.0721
2.07
2.0679
2.0658
2.0637
2.0616
2.0595
2.0573
2.0552
2.053
2.0509
2.0487
2.0465
2.0443
2.0421
2.0399
2.0377
2.0355
2.0333
2.031
2.0287
2.0265
2.0242
2.0219
2.0196
2.0173
2.0149
2.0126
2.0102
2.0079
2.0055
2.0031
2.0007
1.9983
1.9959
1.9935
1.9911
1.9886
1.9862
1.9838
1.9813
1.9788
1.9764
1.9739
1.9714
1.9689
1.9664
1.964
1.9615
1.959
1.9565
1.954
1.9515
1.949
1.9465
1.944
1.9415
1.939
1.9365
1.934
1.9315
1.9291
1.9266
1.9241
1.9216
1.9192
1.9167
1.9143
1.9119
1.9094
1.907
1.9046
1.9022
1.8998
1.8974
1.895
1.8926
1.8902
1.8879
1.8855
1.8832
1.8808
1.8785
1.8762
1.8739
1.8716
1.8693
1.867
1.8647
1.8625
1.8602
1.8579
1.8557
1.8534
1.8512
1.849
1.8467
1.8445
1.8423
1.8401
1.8379
1.8357
1.8335
1.8313
1.8291
1.8269
1.8247
1.8225
1.8203
1.8181
1.8159
1.8138
1.8116
1.8094
1.8072
1.805
1.8028
1.8006
1.7984
1.7962
1.7939
1.7917
1.7895
1.7873
1.785
1.7828
1.7806
1.7783
1.7761
1.7738
1.7715
1.7693
1.767
1.7647
1.7624
1.7601
1.7578
1.7555
1.7531
1.7508
1.7485
1.7461
1.7438
1.7414
1.739
1.7367
1.7343
1.7319
1.7295
1.7271
1.7247
1.7223
1.7199
1.7175
1.715
1.7126
1.7102
1.7078
1.7053
1.7029
1.7004
1.698
1.6956
1.6931
1.6907
1.6882
1.6858
1.6833
1.6809
1.6784
1.676
1.6735
1.6711
1.6687
1.6662
1.6638
1.6614
1.6589
1.6565
1.6541
1.6517
1.6493
1.6469
1.6445
1.6421
1.6397
1.6373
1.6349
1.6326
1.6302
1.6278
1.6255
1.6232
1.6208
1.6185
1.6162
1.6138
1.6115
1.6092
1.6069
1.6046
1.6023
1.6
1.5978
1.5955
1.5932
1.591
1.5887
1.5865
1.5842
1.582
1.5797
1.5775
1.5753
1.573
1.5708
1.5686
1.5664
1.5642
1.5619
1.5597
1.5575
1.5553
1.5531
1.5509
1.5486
1.5464
1.5442
1.542
1.5398
1.5375
1.5353
1.5331
1.5308
1.5286
1.5264
1.5241
1.5219
1.5196
1.5174
1.5151
1.5128
1.5105
1.5083
1.506
1.5037
1.5014
1.4991
1.4968
1.4945
1.4922
1.4898
1.4875
1.4852
1.4828
1.4805
1.4781
1.4758
1.4734
1.471
1.4686
1.4662
1.4639
1.4615
1.4591
1.4567
1.4543
1.4518
1.4494
1.447
1.4446
1.4422
1.4397
1.4373
1.4349
1.4324
1.43
1.4276
1.4251
1.4227
1.4203
1.4178
1.4154
1.413
1.4105
1.4081
1.4057
1.4032
1.4008
1.3984
1.396
1.3936
1.3912
1.3887
1.3863
1.3839
1.3816
1.3792
1.3768
1.3744
1.372
1.3697
1.3673
1.3649
1.3626
1.3602
1.3579
1.3556
1.3533
1.3509
1.3486
1.3463
1.344
1.3417
1.3394
1.3371
1.3349
1.3326
1.3303
1.3281
1.3258
1.3236
1.3213
1.3191
1.3168
1.3146
1.3124
1.3101
1.3079
1.3057
1.3034
1.3012
1.299
1.2968
1.2946
1.2924
1.2902
1.2879
1.2857
1.2835
1.2813
1.2791
1.2769
1.2746
1.2724
1.2702
1.2679
1.2657
1.2635
1.2612
1.259
1.2567
1.2545
1.2522
1.25
1.2477
1.2454
1.2431
1.2408
1.2386
1.2363
1.234
1.2316
1.2293
1.227
1.2247
1.2223
1.22
1.2176
1.2153
1.2129
1.2105
1.2082
1.2058
1.2034
1.201
1.1986
1.1962
1.1938
1.1914
1.1889
1.1865
1.1841
1.1817
1.1792
1.1768
1.1743
1.1719
1.1694
1.167
1.1645
1.1621
1.1596
1.1572
1.1547
1.1523
1.1498
1.1474
1.1449
1.1425
1.14
1.1376
1.1352
1.1327
1.1303
1.1279
1.1254
1.123
1.1206
1.1182
1.1158
1.1134
1.111
1.1086
1.1063
1.1039
1.1015
1.0992
1.0968
1.0945
1.0921
1.0898
1.0875
1.0852
1.0829
1.0806
1.0783
1.076
1.0738
1.0715
1.0692
1.067
1.0647
1.0625
1.0603
1.058
1.0558
1.0536
1.0514
1.0492
1.047
1.0448
1.0426
1.0404
1.0383
1.0361
1.0339
1.0317
1.0296
1.0274
1.0252
1.023
1.0209
1.0187
1.0165
1.0143
1.0122
1.01
1.0078
1.0056
1.0034
1.0012
0.99902
0.99681
0.9946
0.99238
0.99015
0.98791
0.98567
0.98342
0.98116
0.97889
0.97661
0.97432
0.97203
0.96972
0.9674
0.96508
0.96274
0.96039
0.95803
0.95566
0.95328
0.95089
0.94849
0.94608
0.94365
0.94122
0.93878
0.93632
0.93386
0.93139
0.9289
0.92641
0.92391
0.9214
0.91888
0.91636
0.91383
0.91129
0.90875
0.9062
0.90364
0.90108
0.89852
0.89596
0.89339
0.89082
0.88825
0.88568
0.88312
0.88055
0.87799
0.87543
0.87287
0.87032
0.86778
0.86524
0.86271
0.86019
0.85767
0.85517
0.85268
0.8502
0.84774
0.84529
0.84285
0.84044
0.83803
0.83565
0.83328
0.83094
0.82861
0.82631
0.82403
0.82177
0.81953
0.81732
0.81513
0.81297
0.81084
0.80873
0.80665
0.8046
0.80258
0.80059
0.79863
0.7967
0.7948
0.79293
0.7911
0.7893
0.78752
0.78579
0.78408
0.78241
0.78077
0.77917
0.7776
0.77606
0.77456
0.77309
0.77166
0.77026
0.76889
0.76755
0.76625
0.76499
0.76375
0.76255
0.76138
0.76024
0.75913
0.75806
0.75701
0.756
0.75501
0.75405
0.75312
0.75222
0.75135
0.7505
0.74968
0.74889
0.74811
0.74737
0.74664
0.74594
0.74526
0.7446
0.74396
0.74334
0.74274
0.74215
0.74159
0.74104
0.7405
0.73998
0.73947
0.73897
0.73849
0.73802
0.73756
0.7371
0.73666
0.73623
0.7358
0.73538
0.73496
0.73455
0.73414
0.73374
0.73334
0.73294
0.73255
0.73215
0.73176
0.73137
0.73097
0.73058
0.73018
0.72978
0.72937
0.72897
0.72856
0.72815
0.72773
0.72731
0.72688
0.72644
0.72601
0.72556
0.72511
0.72465
0.72419
0.72372
0.72324
0.72276
0.72226
0.72177
0.72126
0.72075
0.72023
0.7197
0.71916
0.71862
0.71807
0.71751
0.71695
0.71638
0.7158
0.71522
0.71463
0.71403
0.71343
0.71282
0.7122
0.71158
0.71096
0.71033
0.70969
0.70905
0.70841
0.70776
0.7071
0.70645
0.70579
0.70512
0.70446
0.70379
0.70312
0.70244
0.70177
0.70109
0.70041
0.69973
0.69905
0.69837
0.69769
0.697
0.69632
0.69564
0.69496
0.69428
0.6936
0.69292
0.69224
0.69157
0.69089
0.69022
0.68955
0.68888
0.68821
0.68754
0.68688
0.68622
0.68556
0.6849
0.68425
0.6836
0.68295
0.68231
0.68167
0.68103
0.68039
0.67976
0.67913
0.6785
0.67787
0.67725
0.67663
0.67601
0.6754
0.67479
0.67418
0.67357
0.67297
0.67237
0.67177
0.67117
0.67058
0.66999
0.6694
0.66881
0.66822
0.66764
0.66705
0.66647
0.66589
0.66532
0.66474
0.66416
0.66359
0.66301
0.66244
0.66187
0.6613
0.66073
0.66016
0.65959
0.65902
0.65845
0.65788
0.65731
0.65674
0.65617
0.6556
0.65503
0.65446
0.65389
0.65332
0.65275
0.65218
0.6516
0.65103
0.65046
0.64988
0.6493
0.64873
0.64815
0.64757
0.64699
0.64641
0.64583
0.64525
0.64466
0.64408
0.64349
0.6429
0.64231
0.64172
0.64113
0.64054
0.63994
0.63935
0.63875
0.63815
0.63756
0.63696
0.63635
0.63575
0.63515
0.63454
0.63394
0.63333
0.63272
0.63211
0.6315
0.63088
0.63027
0.62966
0.62904
0.62842
0.62781
0.62719
0.62657
0.62595
0.62532
0.6247
0.62408
0.62345
0.62283
0.6222
0.62158
0.62095
0.62032
0.61969
0.61906
0.61843
0.6178
0.61717
0.61654
0.6159
0.61527
0.61464
0.614
0.61337
0.61274
0.6121
0.61147
0.61083
0.6102
0.60956
0.60893
0.60829
0.60766
0.60703
0.60639
0.60576
0.60513
0.60449
0.60386
0.60323
0.6026
0.60197
0.60134
0.60071
0.60008
0.59945
0.59883
0.5982
0.59758
0.59696
0.59634
0.59571
0.5951
0.59448
0.59386
0.59325
0.59263
0.59202
0.59141
0.5908
0.5902
0.58959
0.58899
0.58838
0.58778
0.58719
0.58659
0.58599
0.5854
0.58481
0.58422
0.58363
0.58305
0.58246
0.58188
0.5813
0.58072
0.58015
0.57957
0.579
0.57843
0.57786
0.57729
0.57672
0.57615
0.57559
0.57502
0.57446
0.5739
0.57334
0.57278
0.57222
0.57166
0.5711
0.57054
0.56998
0.56943
0.56887
0.56831
0.56775
0.56719
0.56663
0.56607
0.56551
0.56495
0.56439
0.56382
0.56326
0.56269
0.56212
0.56155
0.56097
0.5604
0.55982
0.55924
0.55865
0.55807
0.55748
0.55689
0.55629
0.55569
0.55509
0.55449
0.55388
0.55327
0.55265
0.55203
0.55141
0.55078
0.55015
0.54951
0.54887
0.54823
0.54758
0.54693
0.54627
0.54562
0.54495
0.54429
0.54361
0.54294
0.54226
0.54158
0.5409
0.54021
0.53952
0.53883
0.53813
0.53744
0.53674
0.53603
0.53533
0.53463
0.53392
0.53321
0.53251
0.5318
0.53109
0.53039
0.52968
0.52898
0.52827
0.52757
0.52688
0.52618
0.52549
0.5248
0.52412
0.52344
0.52276
0.52209
0.52143
0.52077
0.52012
0.51948
0.51884
0.51822
0.5176
0.51699
0.51639
0.5158
0.51522
0.51466
0.5141
0.51356
0.51303
0.51252
0.51201
0.51152
0.51105
0.51059
0.51015
0.50972
0.50931
0.50891
0.50853
0.50817
0.50783
0.50751
0.5072
0.50691
0.50664
0.50639
0.50616
0.50595
0.50576
0.50559
0.50544
0.50531
0.50521
0.50512
0.50505
0.50501
0.50498
0.50498
0.505
0.50504
0.5051
0.50518
0.50528
0.5054
0.50554
0.50571
0.50589
0.5061
0.50632
0.50657
0.50683
0.50712
0.50742
0.50774
0.50808
0.50844
0.50882
0.50921
0.50962
0.51005
0.5105
0.51096
0.51143
0.51193
0.51243
0.51295
0.51349
0.51403
0.51459
0.51516
0.51575
0.51634
0.51695
0.51757
0.51819
0.51883
0.51947
0.52012
0.52078
0.52145
0.52212
0.5228
0.52349
0.52418
0.52487
0.52557
0.52627
0.52698
0.52769
0.5284
0.52911
0.52982
0.53054
0.53125
0.53197
0.53269
0.5334
0.53411
0.53483
0.53554
0.53625
0.53695
0.53766
0.53836
0.53906
0.53976
0.54045
0.54114
0.54182
0.5425
0.54318
0.54385
0.54452
0.54519
0.54585
0.5465
0.54715
0.5478
0.54844
0.54907
0.54971
0.55033
0.55096
0.55157
0.55219
0.5528
0.5534
0.554
0.5546
0.55519
0.55578
0.55636
0.55695
0.55752
0.5581
0.55867
0.55924
0.5598
0.56037
0.56093
0.56149
0.56205
0.5626
0.56316
0.56371
0.56426
0.56481
0.56536
0.56591
0.56646
0.56701
0.56756
0.56811
0.56865
0.56921
0.56976
0.57031
0.57086
0.57142
0.57197
0.57253
0.57309
0.57365
0.57421
0.57477
0.57534
0.57591
0.57648
0.57705
0.57763
0.57821
0.57879
0.57937
0.57996
0.58055
0.58114
0.58173
0.58233
0.58293
0.58353
0.58414
0.58474
0.58535
0.58596
0.58658
0.5872
0.58781
0.58843
0.58906
0.58968
0.59031
0.59094
0.59157
0.5922
0.59283
0.59347
0.5941
0.59474
0.59538
0.59602
0.59666
0.5973
0.59794
0.59858
0.59922
0.59986
0.6005
0.60115
0.60179
0.60243
0.60307
0.60371
0.60435
0.60498
0.60562
0.60626
0.60689
0.60753
0.60816
0.60879
0.60942
0.61005
0.61068
0.6113
0.61193
0.61255
0.61317
0.61379
0.61441
0.61502
0.61564
0.61625
0.61686
0.61747
0.61808
0.61868
0.61929
0.61989
0.62049
0.62109
0.62169
0.62228
0.62288
0.62347
0.62407
0.62466
0.62525
0.62584
0.62643
0.62701
0.6276
0.62819
0.62877
0.62936
0.62994
0.63053
0.63111
0.63169
0.63228
0.63286
0.63345
0.63403
0.63461
0.6352
0.63578
0.63637
0.63695
0.63754
0.63813
0.63872
0.63931
0.6399
0.64049
0.64108
0.64167
0.64226
0.64286
0.64346
0.64405
0.64465
0.64525
0.64585
0.64645
0.64706
0.64766
0.64826
0.64887
0.64948
0.65009
0.6507
0.65131
0.65192
0.65253
0.65314
0.65376
0.65437
0.65499
0.65561
0.65622
0.65684
0.65746
0.65808
0.6587
0.65932
0.65994
0.66056
0.66118
0.6618
0.66242
0.66304
0.66366
0.66428
0.6649
0.66552
0.66613
0.66675
0.66737
0.66799
0.6686
0.66922
0.66983
0.67044
0.67106
0.67167
0.67228
0.67289
0.6735
0.67411
0.67471
0.67532
0.67593
0.67653
0.67713
0.67773
0.67833
0.67893
0.67953
0.68013
0.68073
0.68133
0.68192
0.68252
0.68311
0.6837
0.6843
0.68489
0.68548
0.68607
0.68667
0.68726
0.68785
0.68844
0.68903
0.68962
0.69021
0.69081
0.6914
0.69199
0.69258
0.69318
0.69377
0.69437
0.69497
0.69556
0.69616
0.69676
0.69736
0.69797
0.69857
0.69918
0.69978
0.70039
0.701
0.70162
0.70223
0.70284
0.70346
0.70408
0.7047
0.70532
0.70595
0.70657
0.7072
0.70783
0.70846
0.70909
0.70973
0.71036
0.711
0.71164
0.71228
0.71292
0.71356
0.7142
0.71484
0.71548
0.71613
0.71677
0.71742
0.71806
0.7187
0.71934
0.71999
0.72063
0.72127
0.7219
0.72254
0.72318
0.72381
0.72444
0.72506
0.72569
0.72631
0.72693
0.72754
0.72815
0.72876
0.72936
0.72995
0.73055
0.73113
0.73171
0.73228
0.73285
0.73341
0.73397
0.73451
0.73505
0.73559
0.73611
0.73663
0.73713
0.73763
0.73812
0.7386
0.73908
0.73954
0.73999
0.74043
0.74087
0.74129
0.7417
0.7421
0.74249
0.74287
0.74324
0.7436
0.74394
0.74428
0.7446
0.74492
0.74522
0.74551
0.74579
0.74605
0.74631
0.74655
0.74679
0.74701
0.74722
0.74742
0.74761
0.74778
0.74795
0.74811
0.74825
0.74839
0.74851
0.74863
0.74873
0.74883
0.74891
0.74899
0.74906
0.74912
0.74917
0.74921
0.74925
0.74927
0.74929
0.7493
0.74931
0.74931
0.7493
0.74929
0.74927
0.74925
0.74922
0.74918
0.74915
0.7491
0.74906
0.74901
0.74896
0.7489
0.74884
0.74878
0.74872
0.74866
0.74859
0.74852
0.74846
0.74839
0.74832
0.74825
0.74818
0.74812
0.74805
0.74798
0.74792
0.74785
0.74779
0.74773
0.74767
0.74762
0.74756
0.74751
0.74746
0.74741
0.74737
0.74732
0.74728
0.74725
0.74721
0.74718
0.74716
0.74713
0.74711
0.74709
0.74708
0.74707
0.74706
0.74705
0.74705
0.74705
0.74705
0.74706
0.74707
0.74708
0.74709
0.74711
0.74713
0.74715
0.74717
0.7472
0.74723
0.74726
0.74729
0.74732
0.74736
0.74739
0.74743
0.74747
0.74751
0.74755
0.74759
0.74763
0.74767
0.74771
0.74775
0.7478
0.74784
0.74788
0.74792
0.74796
0.748
0.74804
0.74807
0.74811
0.74815
0.74818
0.74821
0.74824
0.74827
0.7483
0.74833
0.74835
0.74838
0.7484
0.74842
0.74843
0.74845
0.74846
0.74847
0.74848
0.74849
0.74849
0.7485
0.7485
0.7485
0.74849
0.74849
0.74848
0.74847
0.74846
0.74845
0.74844
0.74842
0.7484
0.74838
0.74836
0.74834
0.74832
0.7483
0.74827
0.74824
0.74822
0.74819
0.74816
0.74813
0.7481
0.74807
0.74804
0.74801
0.74798
0.74795
0.74792
0.74789
0.74786
0.74783
0.7478
0.74777
0.74774
0.74772
0.74769
0.74767
0.74764
0.74762
0.7476
0.74757
0.74755
0.74754
0.74752
0.7475
0.74749
0.74747
0.74746
0.74745
0.74744
0.74744
0.74743
0.74743
0.74742
0.74742
0.74742
0.74742
0.74743
0.74743
0.74744
0.74745
0.74746
0.74747
0.74748
0.74749
0.74751
0.74752
0.74754
0.74756
0.74757
0.74759
0.74761
0.74763
0.74766
0.74768
0.7477
0.74772
0.74775
0.74777
0.74779
0.74782
0.74784
0.74787
0.74789
0.74791
0.74794
0.74796
0.74798
0.74801
0.74803
0.74805
0.74807
0.74809
0.74811
0.74813
0.74814
0.74816
0.74817
0.74819
0.7482
0.74821
0.74822
0.74823
0.74824
0.74825
0.74826
0.74826
0.74826
0.74827
0.74827
0.74827
0.74827
0.74826
0.74826
0.74826
0.74825
0.74824
0.74823
0.74822
0.74821
0.7482
0.74819
0.74818
0.74816
0.74815
0.74813
0.74812
0.7481
0.74808
0.74807
0.74805
0.74803
0.74801
0.74799
0.74797
0.74795
0.74793
0.74791
0.74789
0.74787
0.74786
0.74784
0.74782
0.7478
0.74778
0.74777
0.74775
0.74773
0.74772
0.7477
0.74769
0.74768
0.74766
0.74765
0.74764
0.74763
0.74762
0.74762
0.74761
0.7476
0.7476
0.7476
0.74759
0.74759
0.74759
0.74759
0.74759
0.74759
0.7476
0.7476
0.74761
0.74761
0.74762
0.74763
0.74764
0.74765
0.74766
0.74767
0.74768
0.74769
0.7477
0.74772
0.74773
0.74774
0.74776
0.74777
0.74779
0.7478
0.74782
0.74784
0.74785
0.74787
0.74788
0.7479
0.74791
0.74793
0.74795
0.74796
0.74797
0.74799
0.748
0.74802
0.74803
0.74804
0.74805
0.74806
0.74807
0.74808
0.74809
0.7481
0.74811
0.74811
0.74812
0.74812
0.74813
0.74813
0.74813
0.74813
0.74813
0.74813
0.74813
0.74813
0.74813
0.74812
0.74812
0.74811
0.74811
0.7481
0.74809
0.74808
0.74808
0.74807
0.74806
0.74805
0.74803
0.74802
0.74801
0.748
0.74799
0.74798
0.74796
0.74795
0.74794
0.74792
0.74791
0.7479
0.74789
0.74787
0.74786
0.74785
0.74784
0.74782
0.74781
0.7478
0.74779
0.74778
0.74777
0.74776
0.74775
0.74775
0.74774
0.74773
0.74773
0.74772
0.74772
0.74771
0.74771
0.74771
0.7477
0.7477
0.7477
0.7477
0.74771
0.74771
0.74771
0.74771
0.74772
0.74772
0.74773
0.74773
0.74774
0.74775
0.74776
0.74776
0.74777
0.74778
0.74779
0.7478
0.74781
0.74782
0.74783
0.74785
0.74786
0.74787
0.74788
0.74789
0.7479
0.74791
0.74792
0.74793
0.74795
0.74796
0.74797
0.74798
0.74798
0.74799
0.748
0.74801
0.74802
0.74802
0.74803
0.74804
0.74804
0.74805
0.74805
0.74805
0.74805
0.74806
0.74806
0.74806
0.74805
0.74805
0.74805
0.74805
0.74804
0.74804
0.74803
0.74803
0.74802
0.74801
0.74801
0.748
0.74799
0.74798
0.74797
0.74796
0.74795
0.74794
0.74792
0.74791
0.7479
0.74789
0.74788
0.74786
0.74785
0.74784
0.74783
0.74782
0.7478
0.74779
0.74778
0.74777
0.74776
0.74775
0.74774
0.74773
0.74772
0.74772
0.74771
0.7477
0.7477
0.74769
0.74769
0.74769
0.74769
0.74769
0.74769
0.74769
0.74769
0.74769
0.7477
0.7477
0.74771
0.74772
0.74772
0.74773
0.74774
0.74775
0.74777
0.74778
0.74779
0.74781
0.74782
0.74784
0.74785
0.74787
0.74789
0.74791
0.74793
0.74794
0.74796
0.74798
0.748
0.74802
0.74804
0.74806
0.74808
0.7481
0.74811
0.74813
0.74815
0.74817
0.74818
0.7482
0.74821
0.74822
0.74824
0.74825
0.74826
0.74826
0.74827
0.74828
0.74828
0.74828
0.74828
0.74828
0.74828
0.74827
0.74827
0.74826
0.74825
0.74824
0.74822
0.74821
0.74819
0.74817
0.74815
0.74812
0.7481
0.74807
0.74804
0.74801
0.74798
0.74794
0.74791
0.74787
0.74783
0.74779
0.74775
0.74771
0.74767
0.74763
0.74759
0.74754
0.7475
0.74746
0.74741
0.74737
0.74733
0.74729
0.74725
0.74721
0.74717
0.74713
0.7471
0.74707
0.74704
0.74701
0.74699
0.74697
0.74695
0.74694
0.74693
0.74692
0.74692
0.74693
0.74694
0.74695
0.74698
0.747
0.74704
0.74708
0.74712
0.74718
0.74724
0.74731
0.74738
0.74747
0.74756
0.74766
0.74777
0.74789
0.74802
0.74816
0.7483
0.74846
0.74863
0.74881
0.74899
0.74919
0.7494
0.74962
0.74985
0.75009
0.75034
0.75061
0.75088
0.75117
0.75147
0.75178
0.7521
0.75243
0.75277
0.75313
0.75349
0.75387
0.75426
0.75466
0.75507
0.75549
0.75593
0.75637
0.75683
0.75729
0.75777
0.75825
0.75875
0.75925
0.75977
0.76029
0.76083
0.76137
0.76192
0.76248
0.76305
0.76363
0.76421
0.76481
0.7654
0.76601
0.76662
0.76724
0.76787
0.7685
0.76914
0.76978
0.77043
0.77108
0.77173
0.77239
0.77305
0.77372
0.77439
0.77506
0.77574
0.77642
0.77709
0.77777
0.77846
0.77914
0.77982
0.78051
0.78119
0.78188
0.78256
0.78324
0.78393
0.78461
0.78529
0.78597
0.78665
0.78732
0.788
0.78867
0.78934
0.79001
0.79067
0.79134
0.792
0.79265
0.79331
0.79396
0.79461
0.79525
0.7959
0.79653
0.79717
0.7978
0.79843
0.79906
0.79968
0.8003
0.80092
0.80153
0.80214
0.80274
0.80335
0.80395
0.80455
0.80514
0.80574
0.80633
0.80691
0.8075
0.80808
0.80866
0.80924
0.80982
0.8104
0.81097
0.81154
0.81211
0.81268
0.81325
0.81382
0.81439
0.81495
0.81552
0.81608
0.81665
0.81721
0.81778
0.81834
0.81891
0.81947
0.82004
0.82061
0.82118
0.82175
0.82232
0.82289
0.82346
0.82403
0.82461
0.82518
0.82576
0.82634
0.82692
0.8275
0.82809
0.82867
0.82926
0.82985
0.83044
0.83103
0.83163
0.83222
0.83282
0.83342
0.83402
0.83463
0.83523
0.83584
0.83645
0.83706
0.83767
0.83828
0.8389
0.83951
0.84013
0.84075
0.84137
0.84199
0.84261
0.84324
0.84386
0.84448
0.84511
0.84573
0.84636
0.84698
0.84761
0.84823
0.84886
0.84948
0.85011
0.85073
0.85136
0.85198
0.85261
0.85323
0.85385
0.85447
0.85509
0.85571
0.85632
0.85694
0.85755
0.85817
0.85878
0.85939
0.85999
0.8606
0.8612
0.86181
0.86241
0.86301
0.8636
0.8642
0.86479
0.86538
0.86597
0.86656
0.86714
0.86773
0.86831
0.86888
0.86946
0.87004
0.87061
0.87118
0.87175
0.87232
0.87288
0.87344
0.87401
0.87457
0.87513
0.87568
0.87624
0.87679
0.87735
0.8779
0.87845
0.879
0.87955
0.8801
0.88064
0.88119
0.88173
0.88228
0.88282
0.88337
0.88391
0.88446
0.885
0.88554
0.88609
0.88663
0.88717
0.88772
0.88826
0.8888
0.88935
0.88989
0.89044
0.89099
0.89153
0.89208
0.89263
0.89318
0.89373
0.89428
0.89483
0.89538
0.89594
0.89649
0.89705
0.8976
0.89816
0.89872
0.89928
0.89984
0.9004
0.90096
0.90152
0.90209
0.90265
0.90322
0.90378
0.90435
0.90492
0.90548
0.90605
0.90662
0.90719
0.90776
0.90833
0.9089
0.90947
0.91004
0.91061
0.91118
0.91175
0.91232
0.91289
0.91346
0.91403
0.9146
0.91517
0.91574
0.91631
0.91687
0.91744
0.918
0.91857
0.91913
0.91969
0.92025
0.92081
0.92137
0.92192
0.92248
0.92303
0.92358
0.92413
0.92468
0.92523
0.92577
0.92632
0.92686
0.9274
0.92794
0.92847
0.92901
0.92954
0.93007
0.9306
0.93113
0.93165
0.93218
0.9327
0.93322
0.93374
0.93426
0.93477
0.93528
0.9358
0.93631
0.93681
0.93732
0.93783
0.93833
0.93883
0.93933
0.93984
0.94033
0.94083
0.94133
0.94182
0.94232
0.94281
0.94331
0.9438
0.94429
0.94478
0.94527
0.94576
0.94625
0.94674
0.94723
0.94771
0.9482
0.94869
0.94918
0.94967
0.95015
0.95064
0.95113
0.95162
0.95211
0.95259
0.95308
0.95357
0.95406
0.95455
0.95504
0.95553
0.95602
0.95652
0.95701
0.9575
0.95799
0.95849
0.95898
0.95948
0.95997
0.96047
0.96096
0.96146
0.96195
0.96245
0.96295
0.96345
0.96395
0.96444
0.96494
0.96544
0.96594
0.96644
0.96694
0.96744
0.96794
0.96843
0.96893
0.96943
0.96993
0.97043
0.97092
0.97142
0.97192
0.97241
0.97291
0.9734
0.97389
0.97439
0.97488
0.97537
0.97586
0.97635
0.97683
0.97732
0.9778
0.97829
0.97877
0.97925
0.97973
0.98021
0.98068
0.98116
0.98163
0.9821
0.98257
0.98304
0.98351
0.98397
0.98443
0.98489
0.98535
0.98581
0.98627
0.98672
0.98717
0.98762
0.98807
0.98852
0.98896
0.9894
0.98985
0.99028
0.99072
0.99116
0.99159
0.99203
0.99246
0.99289
0.99332
0.99374
0.99417
0.99459
0.99501
0.99544
0.99586
0.99628
0.99669
0.99711
0.99753
0.99794
0.99836
0.99877
0.99918
0.9996
1
1.0004
1.0008
1.0012
1.0016
1.0021
1.0025
1.0029
1.0033
1.0037
1.0041
1.0045
1.0049
1.0053
1.0057
1.0061
1.0065
1.007
1.0074
1.0078
1.0082
1.0086
1.009
1.0094
1.0098
1.0102
1.0106
1.011
1.0114
1.0119
1.0123
1.0127
1.0131
1.0135
1.0139
1.0143
1.0147
1.0151
1.0155
1.016
1.0164
1.0168
1.0172
1.0176
1.018
1.0184
1.0188
1.0192
1.0196
1.02
1.0204
1.0209
1.0213
1.0217
1.0221
1.0225
1.0229
1.0233
1.0237
1.0241
1.0245
1.0249
1.0253
1.0257
1.026
1.0264
1.0268
1.0272
1.0276
1.028
1.0284
1.0287
1.0291
1.0295
1.0299
1.0303
1.0306
1.031
1.0314
1.0317
1.0321
1.0325
1.0328
1.0332
1.0335
1.0339
1.0343
1.0346
1.035
1.0353
1.0357
1.036
1.0363
1.0367
1.037
1.0374
1.0377
1.038
1.0384
1.0387
1.039
1.0394
1.0397
1.04
1.0403
1.0407
1.041
1.0413
1.0416
1.042
1.0423
1.0426
1.0429
1.0432
1.0435
1.0439
1.0442
1.0445
1.0448
1.0451
1.0454
1.0457
1.046
1.0463
1.0467
1.047
1.0473
1.0476
1.0479
1.0482
1.0485
1.0488
1.0491
1.0494
1.0497
1.05
1.0504
1.0507
1.051
1.0513
1.0516
1.0519
1.0522
1.0525
1.0528
1.0531
1.0534
1.0537
1.054
1.0543
1.0547
1.055
1.0553
1.0556
1.0559
1.0562
1.0565
1.0568
1.0571
1.0574
1.0577
1.058
1.0583
1.0586
1.0589
1.0592
1.0595
1.0598
1.0601
1.0604
1.0607
1.061
1.0613
1.0616
1.0619
1.0621
1.0624
1.0627
1.063
1.0633
1.0636
1.0638
1.0641
1.0644
1.0647
1.065
1.0652
1.0655
1.0658
1.066
1.0663
1.0666
1.0668
1.0671
1.0673
1.0676
1.0678
1.0681
1.0684
1.0686
1.0688
1.0691
1.0693
1.0696
1.0698
1.0701
1.0703
1.0705
1.0708
1.071
1.0712
1.0714
1.0717
1.0719
1.0721
1.0723
1.0725
1.0728
1.073
1.0732
1.0734
1.0736
1.0738
1.074
1.0743
1.0745
1.0747
1.0749
1.0751
1.0753
1.0755
1.0757
1.0759
1.0761
1.0763
1.0765
1.0767
1.0769
1.0771
1.0773
1.0775
1.0777
1.0779
1.0781
1.0783
1.0785
1.0787
1.0788
1.079
1.0792
1.0794
1.0796
1.0798
1.08
1.0802
1.0804
1.0806
1.0808
1.081
1.0812
1.0814
1.0815
1.0817
1.0819
1.0821
1.0823
1.0825
1.0827
1.0829
1.0831
1.0833
1.0834
1.0836
1.0838
1.084
1.0842
1.0844
1.0846
1.0847
1.0849
1.0851
1.0853
1.0855
1.0856
1.0858
1.086
1.0862
1.0863
1.0865
1.0867
1.0869
1.087
1.0872
1.0874
1.0875
1.0877
1.0878
1.088
1.0882
1.0883
1.0885
1.0886
1.0888
1.0889
1.0891
1.0892
1.0894
1.0895
1.0896
1.0898
1.0899
1.09
1.0902
1.0903
1.0904
1.0906
1.0907
1.0908
1.0909
1.091
1.0912
1.0913
1.0914
1.0915
1.0916
1.0917
1.0918
1.0919
1.092
1.0921
1.0922
1.0923
1.0924
1.0925
1.0926
1.0927
1.0928
1.0929
1.093
1.0931
1.0932
1.0933
1.0933
1.0934
1.0935
1.0936
1.0937
1.0938
1.0938
1.0939
1.094
1.0941
1.0941
1.0942
1.0943
1.0944
1.0944
1.0945
1.0946
1.0947
1.0947
1.0948
1.0949
1.095
1.095
1.0951
1.0952
1.0952
1.0953
1.0954
1.0955
1.0955
1.0956
1.0957
1.0957
1.0958
1.0959
1.0959
1.096
1.0961
1.0961
1.0962
1.0963
1.0963
1.0964
1.0965
1.0965
1.0966
1.0967
1.0967
1.0968
1.0968
1.0969
1.097
1.097
1.0971
1.0971
1.0972
1.0972
1.0973
1.0973
1.0974
1.0974
1.0975
1.0975
1.0976
1.0976
1.0977
1.0977
1.0977
1.0978
1.0978
1.0978
1.0979
1.0979
1.0979
1.098
1.098
1.098
1.098
1.0981
1.0981
1.0981
1.0981
1.0981
1.0981
1.0981
1.0981
1.0981
1.0981
1.0981
1.0981
1.0981
1.0981
1.0981
1.0981
1.0981
1.0981
1.0981
1.0981
1.0981
1.098
1.098
1.098
1.098
1.0979
1.0979
1.0979
1.0979
1.0978
1.0978
1.0978
1.0977
1.0977
1.0977
1.0976
1.0976
1.0975
1.0975
1.0975
1.0974
1.0974
1.0973
1.0973
1.0972
1.0972
1.0971
1.0971
1.097
1.097
1.0969
1.0969
1.0968
1.0968
1.0967
1.0967
1.0966
1.0966
1.0965
1.0965
1.0964
1.0964
1.0963
1.0963
1.0962
1.0961
1.0961
1.096
1.096
1.0959
1.0959
1.0958
1.0957
1.0957
1.0956
1.0956
1.0955
1.0955
1.0954
1.0953
1.0953
1.0952
1.0951
1.0951
1.095
1.095
1.0949
1.0948
1.0947
1.0947
1.0946
1.0945
1.0945
1.0944
1.0943
1.0942
1.0942
1.0941
1.094
1.0939
1.0939
1.0938
1.0937
1.0936
1.0935
1.0934
1.0933
1.0932
1.0932
1.0931
1.093
1.0929
1.0928
1.0927
1.0926
1.0924
1.0923
1.0922
1.0921
1.092
1.0919
1.0918
1.0917
1.0915
1.0914
1.0913
1.0912
1.091
1.0909
1.0908
1.0906
1.0905
1.0904
1.0902
1.0901
1.0899
1.0898
1.0897
1.0895
1.0894
1.0892
1.0891
1.0889
1.0888
1.0886
1.0884
1.0883
1.0881
1.088
1.0878
1.0876
1.0875
1.0873
1.0871
1.087
1.0868
1.0866
1.0865
1.0863
1.0861
1.086
1.0858
1.0856
1.0854
1.0853
1.0851
1.0849
1.0848
1.0846
1.0844
1.0842
1.084
1.0839
1.0837
1.0835
1.0833
1.0832
1.083
1.0828
1.0826
1.0824
1.0823
1.0821
1.0819
1.0817
1.0815
1.0814
1.0812
1.081
1.0808
1.0806
1.0805
1.0803
1.0801
1.0799
1.0797
1.0795
1.0794
1.0792
1.079
1.0788
1.0786
1.0784
1.0782
1.078
1.0778
1.0776
1.0775
1.0773
1.0771
1.0769
1.0767
1.0765
1.0763
1.0761
1.0759
1.0757
1.0755
1.0752
1.075
1.0748
1.0746
1.0744
1.0742
1.074
1.0738
1.0735
1.0733
1.0731
1.0729
1.0726
1.0724
1.0722
1.0719
1.0717
1.0715
1.0712
1.071
1.0708
1.0705
1.0703
1.07
1.0698
1.0695
1.0693
1.069
1.0688
1.0685
1.0682
1.068
1.0677
1.0675
1.0672
1.0669
1.0667
1.0664
1.0661
1.0659
1.0656
1.0653
1.065
1.0648
1.0645
1.0642
1.0639
1.0636
1.0634
1.0631
1.0628
1.0625
1.0622
1.0619
1.0616
1.0614
1.0611
1.0608
1.0605
1.0602
1.0599
1.0596
1.0593
1.059
1.0587
1.0584
1.0582
1.0579
1.0576
1.0573
1.057
1.0567
1.0564
1.0561
1.0558
1.0555
1.0552
1.0549
1.0546
1.0543
1.054
1.0537
1.0534
1.0531
1.0528
1.0525
1.0523
1.052
1.0517
1.0514
1.0511
1.0508
1.0505
1.0502
1.0499
1.0496
1.0493
1.049
1.0487
1.0484
1.0481
1.0477
1.0474
1.0471
1.0468
1.0465
1.0462
1.0459
1.0456
1.0453
1.045
1.0447
1.0443
1.044
1.0437
1.0434
1.0431
1.0427
1.0424
1.0421
1.0418
1.0414
1.0411
1.0408
1.0404
1.0401
1.0398
1.0394
1.0391
1.0388
1.0384
1.0381
1.0377
1.0374
1.037
1.0367
1.0363
1.036
1.0356
1.0352
1.0349
1.0345
1.0342
1.0338
1.0334
1.0331
1.0327
1.0323
1.0319
1.0316
1.0312
1.0308
1.0304
1.0301
1.0297
1.0293
1.0289
1.0285
1.0281
1.0278
1.0274
1.027
1.0266
1.0262
1.0258
1.0254
1.025
1.0246
1.0242
1.0238
1.0234
1.0231
1.0227
1.0223
1.0219
1.0215
1.0211
1.0207
1.0203
1.0199
1.0195
1.0191
1.0187
1.0183
1.0179
1.0175
1.0171
1.0167
1.0163
1.0159
1.0155
1.0151
1.0147
1.0143
1.0139
1.0135
1.0131
1.0127
1.0123
1.0119
1.0115
1.0111
1.0107
1.0103
1.0099
1.0095
1.0091
1.0087
1.0083
1.0079
1.0075
1.0071
1.0067
1.0063
1.0059
1.0055
1.0051
1.0047
1.0043
1.0039
1.0035
1.003
1.0026
1.0022
1.0018
1.0014
1.001
1.0006
1.0002
0.99975
0.99933
0.99891
0.99849
0.99807
0.99765
0.99722
0.9968
0.99637
0.99594
0.99551
0.99508
0.99465
0.99421
0.99378
0.99334
0.9929
0.99246
0.99202
0.99157
0.99113
0.99068
0.99023
0.98978
0.98933
0.98887
0.98842
0.98796
0.9875
0.98704
0.98658
0.98611
0.98565
0.98518
0.98472
0.98425
0.98378
0.9833
0.98283
0.98236
0.98188
0.98141
0.98093
0.98045
0.97997
0.97949
0.97901
0.97853
0.97804
0.97756
0.97707
0.97659
0.9761
0.97562
0.97513
0.97464
0.97416
0.97367
0.97318
0.97269
0.97221
0.97172
0.97123
0.97074
0.97025
0.96976
0.96927
0.96878
0.9683
0.96781
0.96732
0.96683
0.96634
0.96586
0.96537
0.96488
0.96439
0.96391
0.96342
0.96294
0.96245
0.96196
0.96148
0.96099
0.96051
0.96002
0.95954
0.95905
0.95857
0.95809
0.9576
0.95712
0.95663
0.95615
0.95567
0.95518
0.9547
0.95421
0.95373
0.95324
0.95276
0.95227
0.95179
0.9513
0.95082
0.95033
0.94984
0.94935
0.94886
0.94837
0.94788
0.94739
0.9469
0.94641
0.94591
0.94542
0.94492
0.94442
0.94392
0.94342
0.94292
0.94242
0.94191
0.94141
0.9409
0.94039
0.93988
0.93937
0.93886
0.93835
0.93783
0.93731
0.93679
0.93627
0.93575
0.93523
0.9347
0.93418
0.93365
0.93312
0.93259
0.93205
0.93152
0.93098
0.93044
0.9299
0.92936
0.92882
0.92828
0.92773
0.92719
0.92664
0.92609
0.92554
0.92499
0.92444
0.92388
0.92333
0.92278
0.92222
0.92166
0.92111
0.92055
0.91999
0.91943
0.91887
0.91831
0.91775
0.91719
0.91663
0.91606
0.9155
0.91494
0.91438
0.91382
0.91326
0.91269
0.91213
0.91157
0.91101
0.91045
0.90989
0.90933
0.90877
0.90821
0.90765
0.90709
0.90654
0.90598
0.90542
0.90487
0.90431
0.90376
0.90321
0.90265
0.9021
0.90155
0.901
0.90045
0.8999
0.89935
0.8988
0.89825
0.8977
0.89716
0.89661
0.89606
0.89552
0.89497
0.89443
0.89388
0.89334
0.8928
0.89225
0.89171
0.89116
0.89062
0.89008
0.88953
0.88899
0.88844
0.8879
0.88735
0.88681
0.88626
0.88571
0.88516
0.88462
0.88407
0.88352
0.88297
0.88241
0.88186
0.88131
0.88075
0.88019
0.87964
0.87908
0.87852
0.87795
0.87739
0.87683
0.87626
0.87569
0.87512
0.87455
0.87398
0.8734
0.87283
0.87225
0.87167
0.87109
0.8705
0.86992
0.86933
0.86874
0.86815
0.86756
0.86697
0.86637
0.86577
0.86518
0.86458
0.86397
0.86337
0.86277
0.86216
0.86155
0.86095
0.86034
0.85973
0.85912
0.8585
0.85789
0.85728
0.85666
0.85604
0.85543
0.85481
0.85419
0.85358
0.85296
0.85234
0.85172
0.8511
0.85049
0.84987
0.84925
0.84863
0.84802
0.8474
0.84678
0.84617
0.84555
0.84494
0.84433
0.84371
0.8431
0.84249
0.84188
0.84127
0.84067
0.84006
0.83946
0.83885
0.83825
0.83765
0.83705
0.83646
0.83586
0.83527
0.83467
0.83408
0.83349
0.8329
0.83232
0.83173
0.83115
0.83056
0.82998
0.8294
0.82882
0.82824
0.82767
0.82709
0.82651
0.82594
0.82537
0.8248
0.82422
0.82365
0.82308
0.82251
0.82194
0.82137
0.8208
0.82023
0.81966
0.81909
0.81852
0.81795
0.81738
0.81681
0.81624
0.81567
0.81509
0.81452
0.81394
0.81336
0.81278
0.8122
0.81162
0.81103
0.81045
0.80986
0.80927
0.80868
0.80808
0.80749
0.80689
0.80629
0.80568
0.80508
0.80447
0.80386
0.80324
0.80262
0.802
0.80138
0.80075
0.80013
0.79949
0.79886
0.79822
0.79758
0.79694
0.7963
0.79565
0.795
0.79435
0.79369
0.79303
0.79237
0.79171
0.79104
0.79038
0.78971
0.78904
0.78837
0.7877
0.78702
0.78635
0.78567
0.78499
0.78432
0.78364
0.78296
0.78228
0.7816
0.78093
0.78025
0.77957
0.7789
0.77823
0.77755
0.77689
0.77622
0.77555
0.77489
0.77423
0.77357
0.77292
0.77227
0.77162
0.77098
0.77035
0.76971
0.76909
0.76846
0.76785
0.76724
0.76663
0.76603
0.76544
0.76486
0.76428
0.76371
0.76314
0.76259
0.76204
0.7615
0.76097
0.76044
0.75993
0.75942
0.75893
0.75844
0.75796
0.75749
0.75703
0.75659
0.75615
0.75572
0.7553
0.75489
0.75449
0.7541
0.75373
0.75336
0.753
0.75266
0.75232
0.752
0.75169
0.75138
0.75109
0.75081
0.75054
0.75028
0.75003
0.74979
0.74956
0.74934
0.74913
0.74893
0.74874
0.74856
0.74839
0.74823
0.74808
0.74793
0.7478
0.74768
0.74756
0.74745
0.74736
0.74727
0.74718
0.74711
0.74704
0.74698
0.74693
0.74688
0.74684
0.74681
0.74678
0.74676
0.74674
0.74673
0.74673
0.74672
0.74673
0.74674
0.74675
0.74677
0.74679
0.74681
0.74684
0.74687
0.7469
0.74694
0.74697
0.74701
0.74706
0.7471
0.74714
0.74719
0.74724
0.74728
0.74733
0.74738
0.74743
0.74748
0.74753
0.74758
0.74763
0.74768
0.74772
0.74777
0.74782
0.74786
0.74791
0.74795
0.74799
0.74803
0.74807
0.7481
0.74814
0.74817
0.7482
0.74823
0.74826
0.74829
0.74831
0.74833
0.74835
0.74837
0.74839
0.7484
0.74841
0.74842
0.74843
0.74844
0.74844
0.74844
0.74845
0.74844
0.74844
0.74844
0.74843
0.74842
0.74841
0.7484
0.74839
0.74838
0.74836
0.74835
0.74833
0.74831
0.74829
0.74827
0.74825
0.74823
0.74821
0.74819
0.74816
0.74814
0.74812
0.74809
0.74807
0.74804
0.74802
0.74799
0.74797
0.74795
0.74792
0.7479
0.74788
0.74785
0.74783
0.74781
0.74779
0.74777
0.74775
0.74773
0.74772
0.7477
0.74768
0.74767
0.74765
0.74764
0.74763
0.74762
0.74761
0.7476
0.74759
0.74758
0.74758
0.74757
0.74757
0.74757
0.74756
0.74756
0.74756
0.74757
0.74757
0.74757
0.74757
0.74758
0.74759
0.74759
0.7476
0.74761
0.74762
0.74763
0.74764
0.74765
0.74766
0.74767
0.74768
0.7477
0.74771
0.74772
0.74774
0.74775
0.74777
0.74778
0.7478
0.74781
0.74783
0.74784
0.74785
0.74787
0.74788
0.7479
0.74791
0.74793
0.74794
0.74795
0.74797
0.74798
0.74799
0.748
0.74801
0.74802
0.74803
0.74804
0.74805
0.74806
0.74807
0.74807
0.74808
0.74809
0.74809
0.7481
0.7481
0.7481
0.74811
0.74811
0.74811
0.74811
0.74811
0.74811
0.74811
0.74811
0.7481
0.7481
0.7481
0.74809
0.74809
0.74808
0.74808
0.74807
0.74806
0.74806
0.74805
0.74804
0.74803
0.74802
0.74801
0.74801
0.748
0.74799
0.74798
0.74797
0.74796
0.74795
0.74794
0.74793
0.74792
0.74791
0.7479
0.74789
0.74788
0.74787
0.74786
0.74785
0.74784
0.74783
0.74783
0.74782
0.74781
0.7478
0.74779
0.74779
0.74778
0.74778
0.74777
0.74777
0.74776
0.74776
0.74775
0.74775
0.74775
0.74774
0.74774
0.74774
0.74774
0.74774
0.74774
0.74774
0.74774
0.74774
0.74774
0.74774
0.74775
0.74775
0.74775
0.74776
0.74776
0.74776
0.74777
0.74777
0.74778
0.74778
0.74779
0.7478
0.7478
0.74781
0.74781
0.74782
0.74783
0.74783
0.74784
0.74785
0.74786
0.74786
0.74787
0.74788
0.74788
0.74789
0.7479
0.7479
0.74791
0.74792
0.74792
0.74793
0.74794
0.74794
0.74795
0.74795
0.74796
0.74796
0.74797
0.74797
0.74798
0.74798
0.74799
0.74799
0.74799
0.74799
0.748
0.748
0.748
0.748
0.748
0.748
0.748
0.748
0.748
0.748
0.748
0.748
0.748
0.748
0.748
0.74799
0.74799
0.74799
0.74799
0.74798
0.74798
0.74798
0.74797
0.74797
0.74796
0.74796
0.74795
0.74795
0.74794
0.74794
0.74793
0.74793
0.74792
0.74792
0.74791
0.74791
0.7479
0.7479
0.74789
0.74789
0.74788
0.74788
0.74787
0.74787
0.74786
0.74786
0.74786
0.74785
0.74785
0.74784
0.74784
0.74784
0.74783
0.74783
0.74783
0.74782
0.74782
0.74782
0.74782
0.74781
0.74781
0.74781
0.74781
0.74781
0.74781
0.74781
0.74781
0.74781
0.74781
0.74781
0.74781
0.74781
0.74781
0.74781
0.74782
0.74782
0.74782
0.74782
0.74782
0.74783
0.74783
0.74783
0.74783
0.74784
0.74784
0.74784
0.74785
0.74785
0.74785
0.74786
0.74786
0.74787
0.74787
0.74787
0.74788
0.74788
0.74789
0.74789
0.74789
0.7479
0.7479
0.7479
0.74791
0.74791
0.74791
0.74792
0.74792
0.74792
0.74793
0.74793
0.74793
0.74794
0.74794
0.74794
0.74794
0.74794
0.74795
0.74795
0.74795
0.74795
0.74795
0.74795
0.74795
0.74795
0.74796
0.74796
0.74796
0.74796
0.74796
0.74796
0.74795
0.74795
0.74795
0.74795
0.74795
0.74795
0.74795
0.74795
0.74794
0.74794
0.74794
0.74794
0.74794
0.74793
0.74793
0.74793
0.74793
0.74792
0.74792
0.74792
0.74792
0.74791
0.74791
0.74791
0.7479
0.7479
0.7479
0.7479
0.74789
0.74789
0.74789
0.74788
0.74788
0.74788
0.74788
0.74787
0.74787
0.74787
0.74787
0.74786
0.74786
0.74786
0.74786
0.74786
0.74785
0.74785
0.74785
0.74785
0.74785
0.74785
0.74785
0.74785
0.74784
0.74784
0.74784
0.74784
0.74784
0.74784
0.74784
0.74784
0.74784
0.74784
0.74784
0.74785
0.74785
0.74785
0.74785
0.74785
0.74785
0.74785
0.74785
0.74786
0.74786
0.74786
0.74786
0.74786
0.74786
0.74787
0.74787
0.74787
0.74787
0.74787
0.74788
0.74788
0.74788
0.74788
0.74789
0.74789
0.74789
0.74789
0.74789
0.7479
0.7479
0.7479
0.7479
0.7479
0.74791
0.74791
0.74791
0.74791
0.74791
0.74792
0.74792
0.74792
0.74792
0.74792
0.74792
0.74792
0.74792
0.74793
0.74793
0.74793
0.74793
0.74793
0.74793
0.74793
0.74793
0.74793
0.74793
0.74793
0.74793
0.74793
0.74793
0.74793
0.74793
0.74793
0.74793
0.74793
0.74793
0.74793
0.74792
0.74792
0.74792
0.74792
0.74792
0.74792
0.74792
0.74792
0.74791
0.74791
0.74791
0.74791
0.74791
0.74791
0.74791
0.7479
0.7479
0.7479
0.7479
0.7479
0.7479
0.74789
0.74789
0.74789
0.74789
0.74789
0.74789
0.74788
0.74788
0.74788
0.74788
0.74788
0.74788
0.74787
0.74787
0.74787
0.74787
0.74787
0.74787
0.74787
0.74787
0.74787
0.74787
0.74786
0.74786
0.74786
0.74786
0.74786
0.74786
0.74786
0.74786
0.74786
0.74786
0.74786
0.74786
0.74786
0.74786
0.74786
0.74786
0.74786
0.74786
0.74786
0.74786
0.74787
0.74787
0.74787
0.74787
0.74787
0.74787
0.74787
0.74787
0.74787
0.74787
0.74788
0.74788
0.74788
0.74788
0.74788
0.74788
0.74788
0.74788
0.74789
0.74789
0.74789
0.74789
0.74789
0.74789
0.74789
0.74789
0.7479
0.7479
0.7479
0.7479
0.7479
0.7479
0.7479
0.74791
0.74791
0.74791
0.74791
0.74791
0.74791
0.74791
0.74791
0.74791
0.74791
0.74791
0.74792
0.74792
0.74792
0.74792
0.74792
0.74792
0.74792
0.74792
0.74792
0.74792
0.74792
0.74792
0.74792
0.74792
0.74792
0.74792
0.74792
0.74792
0.74792
0.74792
0.74792
0.74792
0.74792
0.74792
0.74791
0.74791
0.74791
0.74791
0.74791
0.74791
0.74791
0.74791
0.74791
0.74791
0.74791
0.7479
0.7479
0.7479
0.7479
0.7479
0.7479
0.7479
0.7479
0.74789
0.74789
0.74789
0.74789
0.74789
0.74789
0.74789
0.74789
0.74788
0.74788
0.74788
0.74788
0.74788
0.74788
0.74788
0.74788
0.74788
0.74787
0.74787
0.74787
0.74787
0.74787
0.74787
0.74787
0.74787
0.74787
0.74787
0.74787
0.74787
0.74787
0.74787
0.74786
0.74786
0.74786
0.74786
0.74786
0.74786
0.74786
0.74786
0.74786
0.74786
0.74786
0.74787
0.74787
0.74787
0.74787
0.74787
0.74787
0.74787
0.74787
0.74787
0.74787
0.74787
0.74787
0.74787
0.74788
0.74788
0.74788
0.74788
0.74788
0.74788
0.74788
0.74788
0.74789
0.74789
0.74789
0.74789
0.74789
0.74789
0.74789
0.7479
0.7479
0.7479
0.7479
0.7479
0.7479
0.74791
0.74791
0.74791
0.74791
0.74791
0.74791
0.74791
0.74791
0.74792
0.74792
0.74792
0.74792
0.74792
0.74792
0.74792
0.74792
0.74792
0.74792
0.74792
0.74793
0.74793
0.74793
0.74793
0.74793
0.74793
0.74793
0.74793
0.74793
0.74793
0.74793
0.74793
0.74793
0.74792
0.74792
0.74792
0.74792
0.74792
0.74792
0.74792
0.74792
0.74792
0.74792
0.74792
0.74791
0.74791
0.74791
0.74791
0.74791
0.74791
0.7479
0.7479
0.7479
0.7479
0.7479
0.74789
0.74789
0.74789
0.74789
0.74789
0.74788
0.74788
0.74788
0.74788
0.74788
0.74787
0.74787
0.74787
0.74787
0.74787
0.74786
0.74786
0.74786
0.74786
0.74786
0.74786
0.74786
0.74785
0.74785
0.74785
0.74785
0.74785
0.74785
0.74785
0.74785
0.74785
0.74785
0.74785
0.74785
0.74785
0.74785
0.74785
0.74785
0.74785
0.74785
0.74785
0.74785
0.74785
0.74785
0.74785
0.74785
0.74785
0.74785
0.74786
0.74786
0.74786
0.74786
0.74786
0.74787
0.74787
0.74787
0.74787
0.74788
0.74788
0.74788
0.74788
0.74789
0.74789
0.74789
0.74789
0.7479
0.7479
0.7479
0.74791
0.74791
0.74791
0.74792
0.74792
0.74792
0.74792
0.74793
0.74793
0.74793
0.74793
0.74794
0.74794
0.74794
0.74794
0.74795
0.74795
0.74795
0.74795
0.74795
0.74795
0.74796
0.74796
0.74796
0.74796
0.74796
0.74796
0.74796
0.74796
0.74796
0.74796
0.74796
0.74796
0.74796
0.74796
0.74795
0.74795
0.74795
0.74795
0.74795
0.74795
0.74794
0.74794
0.74794
0.74793
0.74793
0.74793
0.74793
0.74792
0.74792
0.74791
0.74791
0.74791
0.7479
0.7479
0.74789
0.74789
0.74789
0.74788
0.74788
0.74787
0.74787
0.74786
0.74786
0.74785
0.74785
0.74785
0.74784
0.74784
0.74783
0.74783
0.74783
0.74782
0.74782
0.74782
0.74781
0.74781
0.74781
0.7478
0.7478
0.7478
0.7478
0.74779
0.74779
0.74779
0.74779
0.74779
0.74779
0.74779
0.74779
0.74779
0.74779
0.74779
0.74779
0.7478
0.7478
0.7478
0.7478
0.74781
0.74781
0.74781
0.74782
0.74782
0.74782
0.74783
0.74783
0.74784
0.74785
0.74785
0.74786
0.74786
0.74787
0.74788
0.74788
0.74789
0.7479
0.7479
0.74791
0.74792
0.74792
0.74793
0.74794
0.74795
0.74795
0.74796
0.74797
0.74798
0.74798
0.74799
0.748
0.748
0.74801
0.74802
0.74802
0.74803
0.74803
0.74804
0.74804
0.74805
0.74805
0.74805
0.74806
0.74806
0.74806
0.74806
0.74806
0.74806
0.74806
0.74806
0.74806
0.74806
0.74806
0.74806
0.74805
0.74805
0.74804
0.74804
0.74803
0.74803
0.74802
0.74801
0.748
0.748
0.74799
0.74798
0.74797
0.74796
0.74795
0.74793
0.74792
0.74791
0.7479
0.74788
0.74787
0.74786
0.74784
0.74783
0.74781
0.7478
0.74778
0.74777
0.74775
0.74774
0.74772
0.74771
0.74769
0.74768
0.74766
0.74765
0.74764
0.74763
0.74761
0.7476
0.74759
0.74758
0.74757
0.74756
0.74755
0.74755
0.74754
0.74754
0.74753
0.74753
0.74753
0.74753
0.74754
0.74754
0.74755
0.74755
0.74756
0.74757
0.74759
0.7476
0.74762
0.74764
0.74766
0.74768
0.74771
0.74774
0.74777
0.7478
0.74783
0.74787
0.74791
0.74796
0.748
0.74805
0.7481
0.74816
0.74822
0.74828
0.74834
0.74841
0.74848
0.74855
0.74862
0.7487
0.74878
0.74887
0.74896
0.74905
0.74914
0.74924
0.74934
0.74944
0.74955
0.74966
0.74977
0.74989
0.75001
0.75013
0.75025
0.75038
0.75051
0.75064
0.75078
0.75092
0.75106
0.7512
0.75135
0.7515
0.75165
0.75181
0.75196
0.75212
0.75228
0.75245
0.75261
0.75278
0.75295
0.75312
0.7533
0.75347
0.75365
0.75383
0.75401
0.75419
0.75438
0.75456
0.75475
0.75493
0.75512
0.75531
0.7555
0.75569
0.75588
0.75608
0.75627
0.75646
0.75666
0.75685
0.75704
0.75724
0.75743
0.75763
0.75782
0.75802
0.75821
0.75841
0.7586
0.75879
0.75899
0.75918
0.75937
0.75956
0.75975
0.75994
0.76013
0.76032
0.76051
0.7607
0.76088
0.76107
0.76125
0.76144
0.76162
0.7618
0.76198
0.76216
0.76234
0.76251
0.76269
0.76286
0.76304
0.76321
0.76338
0.76355
0.76372
0.76389
0.76405
0.76422
0.76438
0.76454
0.76471
0.76487
0.76502
0.76518
0.76534
0.7655
0.76565
0.7658
0.76596
0.76611
0.76626
0.76641
0.76656
0.76671
0.76685
0.767
0.76715
0.76729
0.76743
0.76758
0.76772
0.76786
0.768
0.76815
0.76829
0.76843
0.76856
0.7687
0.76884
0.76898
0.76912
0.76925
0.76939
0.76953
0.76966
0.7698
0.76993
0.77007
0.7702
0.77034
0.77047
0.77061
0.77074
0.77087
0.77101
0.77114
0.77127
0.77141
0.77154
0.77167
0.7718
0.77194
0.77207
0.7722
0.77233
0.77246
0.77259
0.77272
0.77285
0.77298
0.77311
0.77324
0.77337
0.7735
0.77363
0.77376
0.77389
0.77402
0.77414
0.77427
0.7744
0.77452
0.77465
0.77477
0.7749
0.77502
0.77514
0.77526
0.77539
0.77551
0.77563
0.77575
0.77586
0.77598
0.7761
0.77622
0.77633
0.77645
0.77656
0.77667
0.77678
0.77689
0.777
0.77711
0.77722
0.77733
0.77743
0.77754
0.77764
0.77774
0.77784
0.77794
0.77804
0.77814
0.77823
0.77833
0.77842
0.77851
0.77861
0.7787
0.77879
0.77887
0.77896
0.77904
0.77913
0.77921
0.77929
0.77937
0.77945
0.77953
0.77961
0.77968
0.77976
0.77983
0.77991
0.77998
0.78005
0.78012
0.78018
0.78025
0.78032
0.78038
0.78045
0.78051
0.78057
0.78063
0.78069
0.78075
0.78081
0.78087
0.78092
0.78098
0.78103
0.78108
0.78114
0.78119
0.78124
0.78129
0.78134
0.78139
0.78144
0.78148
0.78153
0.78158
0.78162
0.78167
0.78171
0.78175
0.78179
0.78183
0.78188
0.78192
0.78195
0.78199
0.78203
0.78207
0.78211
0.78214
0.78218
0.78221
0.78225
0.78228
0.78231
0.78234
0.78237
0.7824
0.78243
0.78246
0.78249
0.78252
0.78254
0.78257
0.7826
0.78262
0.78264
0.78267
0.78269
0.78271
0.78273
0.78275
0.78277
0.78278
0.7828
0.78281
0.78283
0.78284
0.78286
0.78287
0.78288
0.78289
0.7829
0.7829
0.78291
0.78291
0.78292
0.78292
0.78292
0.78292
0.78292
0.78292
0.78292
0.78292
0.78291
0.78291
0.7829
0.78289
0.78288
0.78287
0.78286
0.78284
0.78283
0.78281
0.7828
0.78278
0.78276
0.78274
0.78272
0.7827
0.78267
0.78265
0.78262
0.78259
0.78257
0.78254
0.78251
0.78247
0.78244
0.78241
0.78237
0.78234
0.7823
0.78226
0.78222
0.78218
0.78214
0.7821
0.78205
0.78201
0.78196
0.78192
0.78187
0.78182
0.78177
0.78172
0.78167
0.78162
0.78157
0.78151
0.78146
0.7814
0.78135
0.78129
0.78123
0.78118
0.78112
0.78106
0.781
0.78093
0.78087
0.78081
0.78074
0.78068
0.78061
0.78055
0.78048
0.78041
0.78035
0.78028
0.78021
0.78014
0.78007
0.77999
0.77992
0.77985
0.77977
0.7797
0.77962
0.77955
0.77947
0.77939
0.77931
0.77923
0.77915
0.77907
0.77899
0.77891
0.77882
0.77874
0.77865
0.77857
0.77848
0.77839
0.77831
0.77822
0.77813
0.77803
0.77794
0.77785
0.77776
0.77766
0.77756
0.77747
0.77737
0.77727
0.77717
0.77707
0.77697
0.77687
0.77676
0.77666
0.77656
0.77645
0.77634
0.77623
0.77612
0.77601
0.7759
0.77579
0.77568
0.77557
0.77545
0.77533
0.77522
0.7751
0.77498
0.77486
0.77474
0.77462
0.7745
0.77438
0.77425
0.77413
0.77401
0.77388
0.77375
0.77363
0.7735
0.77337
0.77324
0.77311
0.77298
0.77285
0.77271
0.77258
0.77245
0.77231
0.77218
0.77204
0.77191
0.77177
0.77164
0.7715
0.77136
0.77122
0.77108
0.77094
0.77081
0.77067
0.77052
0.77038
0.77024
0.7701
0.76996
0.76982
0.76967
0.76953
0.76939
0.76924
0.7691
0.76895
0.76881
0.76866
0.76852
0.76837
0.76822
0.76808
0.76793
0.76778
0.76763
0.76749
0.76734
0.76719
0.76704
0.76689
0.76673
0.76658
0.76643
0.76628
0.76613
0.76597
0.76582
0.76566
0.76551
0.76535
0.76519
0.76504
0.76488
0.76472
0.76456
0.7644
0.76424
0.76407
0.76391
0.76375
0.76358
0.76342
0.76325
0.76309
0.76292
0.76275
0.76258
0.76241
0.76224
0.76207
0.76189
0.76172
0.76154
0.76137
0.76119
0.76101
0.76084
0.76066
0.76048
0.7603
0.76011
0.75993
0.75975
0.75957
0.75938
0.7592
0.75901
0.75882
0.75864
0.75845
0.75826
0.75807
0.75789
0.7577
0.75751
0.75732
0.75713
0.75694
0.75675
0.75656
0.75637
0.75618
0.75599
0.7558
0.75562
0.75543
0.75524
0.75505
0.75487
0.75468
0.7545
0.75431
0.75413
0.75395
0.75377
0.75359
0.75341
0.75324
0.75306
0.75289
0.75272
0.75255
0.75238
0.75221
0.75205
0.75189
0.75173
0.75157
0.75141
0.75126
0.75111
0.75096
0.75081
0.75067
0.75053
0.75039
0.75026
0.75013
0.75
0.74987
0.74975
0.74963
0.74951
0.7494
0.74929
0.74918
0.74908
0.74898
0.74888
0.74879
0.7487
0.74861
0.74853
0.74845
0.74837
0.74829
0.74822
0.74816
0.74809
0.74803
0.74797
0.74792
0.74787
0.74782
0.74778
0.74773
0.7477
0.74766
0.74763
0.7476
0.74757
0.74755
0.74752
0.74751
0.74749
0.74748
0.74746
0.74745
0.74745
0.74744
0.74744
0.74744
0.74744
0.74744
0.74745
0.74746
0.74746
0.74747
0.74748
0.7475
0.74751
0.74753
0.74754
0.74756
0.74758
0.74759
0.74761
0.74763
0.74765
0.74767
0.74769
0.74772
0.74774
0.74776
0.74778
0.7478
0.74782
0.74784
0.74787
0.74789
0.74791
0.74793
0.74795
0.74796
0.74798
0.748
0.74802
0.74803
0.74805
0.74806
0.74808
0.74809
0.7481
0.74811
0.74812
0.74813
0.74814
0.74815
0.74816
0.74816
0.74817
0.74817
0.74817
0.74817
0.74817
0.74817
0.74817
0.74817
0.74817
0.74816
0.74816
0.74815
0.74815
0.74814
0.74813
0.74812
0.74811
0.7481
0.74809
0.74808
0.74807
0.74806
0.74805
0.74803
0.74802
0.74801
0.74799
0.74798
0.74797
0.74795
0.74794
0.74792
0.74791
0.7479
0.74788
0.74787
0.74785
0.74784
0.74783
0.74782
0.7478
0.74779
0.74778
0.74777
0.74776
0.74775
0.74774
0.74773
0.74772
0.74772
0.74771
0.7477
0.7477
0.74769
0.74769
0.74768
0.74768
0.74768
0.74768
0.74768
0.74767
0.74768
0.74768
0.74768
0.74768
0.74768
0.74769
0.74769
0.7477
0.7477
0.74771
0.74771
0.74772
0.74773
0.74774
0.74775
0.74775
0.74776
0.74777
0.74778
0.74779
0.7478
0.74781
0.74783
0.74784
0.74785
0.74786
0.74787
0.74788
0.74789
0.7479
0.74791
0.74792
0.74794
0.74795
0.74796
0.74797
0.74798
0.74798
0.74799
0.748
0.74801
0.74802
0.74803
0.74803
0.74804
0.74805
0.74805
0.74806
0.74806
0.74806
0.74807
0.74807
0.74807
0.74807
0.74808
0.74808
0.74808
0.74808
0.74807
0.74807
0.74807
0.74807
0.74806
0.74806
0.74806
0.74805
0.74805
0.74804
0.74803
0.74803
0.74802
0.74801
0.74801
0.748
0.74799
0.74798
0.74797
0.74796
0.74795
0.74795
0.74794
0.74793
0.74792
0.74791
0.7479
0.74789
0.74788
0.74787
0.74786
0.74785
0.74784
0.74783
0.74782
0.74782
0.74781
0.7478
0.74779
0.74778
0.74778
0.74777
0.74777
0.74776
0.74775
0.74775
0.74775
0.74774
0.74774
0.74774
0.74773
